Date,Low,Open,Volume,High,Close,Adjusted Close
04-10-1989,2.4375,2.46875,20636000,2.546875,2.5,1.786060094833374
05-10-1989,2.5,2.515625,6453600,2.625,2.578125,1.8418759107589722
06-10-1989,2.546875,2.59375,2755200,2.625,2.546875,1.8195494413375854
09-10-1989,2.5,2.546875,1084000,2.546875,2.546875,1.8195494413375854
10-10-1989,2.5,2.5625,1493600,2.5625,2.53125,1.8083851337432861
11-10-1989,2.46875,2.5,1260000,2.515625,2.515625,1.7972229719161987
12-10-1989,2.515625,2.515625,602400,2.546875,2.53125,1.8083851337432861
13-10-1989,2.46875,2.53125,3970400,2.53125,2.484375,1.7748981714248657
16-10-1989,2.375,2.375,3924800,2.46875,2.46875,1.7637356519699097
17-10-1989,2.4375,2.4375,1843200,2.5,2.5,1.786060094833374
18-10-1989,2.484375,2.5,1128000,2.5625,2.546875,1.8195494413375854
19-10-1989,2.53125,2.53125,1040000,2.546875,2.546875,1.8195494413375854
20-10-1989,2.515625,2.53125,237600,2.53125,2.53125,1.8083851337432861
23-10-1989,2.546875,2.546875,87200,2.5625,2.546875,1.8195494413375854
24-10-1989,2.53125,2.546875,689600,2.5625,2.5625,1.8307119607925415
25-10-1989,2.515625,2.546875,608000,2.578125,2.546875,1.8195494413375854
26-10-1989,2.546875,2.546875,228800,2.5625,2.546875,1.8195494413375854
27-10-1989,2.5,2.546875,456000,2.546875,2.515625,1.7972229719161987
30-10-1989,2.5,2.515625,250400,2.515625,2.5,1.786060094833374
31-10-1989,2.5,2.5,424800,2.515625,2.5,1.786060094833374
01-11-1989,2.515625,2.515625,715200,2.5625,2.5625,1.8307119607925415
02-11-1989,2.59375,2.59375,130400,2.640625,2.640625,1.8865259885787964
03-11-1989,2.625,2.625,1118400,2.75,2.734375,1.9535040855407715
06-11-1989,2.578125,2.71875,264800,2.71875,2.578125,1.8418759107589722
07-11-1989,2.5,2.546875,727200,2.6875,2.6875,1.9200149774551392
08-11-1989,2.671875,2.6875,236800,2.71875,2.71875,1.9423407316207886
09-11-1989,2.6875,2.71875,60800,2.71875,2.6875,1.9200149774551392
10-11-1989,2.546875,2.6875,210400,2.6875,2.5625,1.8307119607925415
13-11-1989,2.515625,2.5625,92800,2.5625,2.546875,1.8195494413375854
14-11-1989,2.484375,2.578125,428000,2.578125,2.53125,1.8083851337432861
15-11-1989,2.53125,2.546875,176000,2.578125,2.5625,1.8307119607925415
16-11-1989,2.546875,2.546875,301600,2.59375,2.59375,1.8530365228652954
17-11-1989,2.59375,2.59375,249600,2.640625,2.640625,1.8865259885787964
20-11-1989,2.609375,2.65625,43200,2.65625,2.609375,1.864201307296753
21-11-1989,2.59375,2.59375,108800,2.671875,2.671875,1.9088515043258667
22-11-1989,2.6875,2.6875,255200,2.75,2.75,1.9646655321121216
24-11-1989,2.78125,2.78125,572000,2.953125,2.921875,2.0874578952789307
27-11-1989,2.859375,2.90625,253600,2.9375,2.875,2.053969621658325
28-11-1989,2.828125,2.875,560000,2.875,2.828125,2.0204806327819824
29-11-1989,2.78125,2.8125,60800,2.8125,2.796875,1.9981549978256226
30-11-1989,2.8125,2.8125,712800,2.90625,2.890625,2.065131902694702
01-12-1989,2.890625,2.890625,356800,2.953125,2.90625,2.0762956142425537
04-12-1989,2.875,2.9375,172000,2.984375,2.984375,2.1321098804473877
05-12-1989,2.90625,2.953125,93600,2.984375,2.90625,2.0762956142425537
06-12-1989,2.90625,2.90625,668800,3.0,2.984375,2.1321098804473877
07-12-1989,2.921875,2.984375,215200,2.984375,2.953125,2.1097843647003174
08-12-1989,2.921875,2.921875,122400,2.953125,2.953125,2.1097843647003174
11-12-1989,2.9375,2.96875,306400,3.03125,3.0,2.1432735919952393
12-12-1989,2.984375,3.015625,1119200,3.03125,3.015625,2.154435396194458
13-12-1989,2.984375,3.0,400000,3.15625,3.15625,2.254901885986328
14-12-1989,3.109375,3.125,391200,3.140625,3.125,2.2325751781463623
15-12-1989,3.09375,3.140625,155200,3.140625,3.109375,2.221411943435669
18-12-1989,3.03125,3.078125,224000,3.125,3.03125,2.165598154067993
19-12-1989,3.03125,3.03125,215200,3.0625,3.0625,2.18792462348938
20-12-1989,3.046875,3.0625,166400,3.109375,3.078125,2.1990861892700195
21-12-1989,3.0625,3.109375,174400,3.125,3.109375,2.221411943435669
22-12-1989,3.109375,3.125,173600,3.125,3.125,2.2325751781463623
26-12-1989,3.078125,3.109375,97600,3.109375,3.078125,2.1990861892700195
27-12-1989,3.03125,3.0625,144000,3.0625,3.03125,2.165598154067993
28-12-1989,3.03125,3.046875,11200,3.046875,3.03125,2.165598154067993
29-12-1989,3.015625,3.03125,219200,3.15625,3.15625,2.254901885986328
02-01-1990,3.03125,3.125,194400,3.125,3.046875,2.1767609119415283
03-01-1990,3.03125,3.0625,361600,3.0625,3.03125,2.165598154067993
04-01-1990,2.953125,3.03125,166400,3.0625,2.953125,2.1097843647003174
05-01-1990,2.859375,2.9375,100800,2.9375,2.90625,2.0762956142425537
08-01-1990,2.84375,2.875,880800,2.890625,2.859375,2.0428054332733154
09-01-1990,2.8125,2.828125,282400,2.84375,2.8125,2.0093183517456055
10-01-1990,2.6875,2.765625,784000,2.765625,2.703125,1.9354791641235352
11-01-1990,2.703125,2.71875,347200,2.765625,2.75,1.969041109085083
12-01-1990,2.6875,2.71875,159200,2.734375,2.71875,1.9466663599014282
15-01-1990,2.71875,2.734375,25600,2.734375,2.71875,1.9466663599014282
16-01-1990,2.625,2.6875,172800,2.703125,2.703125,1.9354791641235352
17-01-1990,2.71875,2.71875,216000,2.8125,2.71875,1.9466663599014282
18-01-1990,2.6875,2.6875,157600,2.71875,2.703125,1.9354791641235352
19-01-1990,2.734375,2.734375,8800,2.75,2.75,1.969041109085083
22-01-1990,2.71875,2.734375,56800,2.75,2.734375,1.9578546285629272
23-01-1990,2.734375,2.765625,101600,2.765625,2.75,1.969041109085083
24-01-1990,2.6875,2.734375,26400,2.734375,2.6875,1.9242914915084839
25-01-1990,2.671875,2.6875,249600,2.71875,2.71875,1.9466663599014282
26-01-1990,2.671875,2.703125,45600,2.71875,2.671875,1.9131028652191162
29-01-1990,2.625,2.6875,444000,2.6875,2.640625,1.8907275199890137
30-01-1990,2.578125,2.625,548000,2.65625,2.65625,1.9019155502319336
31-01-1990,2.6875,2.6875,757600,2.859375,2.859375,2.0473551750183105
01-02-1990,2.84375,2.875,149600,2.875,2.859375,2.0473551750183105
02-02-1990,2.875,2.875,720000,2.90625,2.875,2.058544635772705
05-02-1990,2.875,2.90625,163200,2.90625,2.875,2.058544635772705
06-02-1990,2.84375,2.875,99200,2.90625,2.890625,2.0697319507598877
07-02-1990,2.90625,2.90625,32800,2.9375,2.9375,2.103295087814331
08-02-1990,2.96875,2.96875,346400,3.125,3.046875,2.1816089153289795
09-02-1990,2.96875,3.078125,179200,3.125,3.0,2.1480464935302734
12-02-1990,2.90625,3.0,28000,3.0,2.90625,2.0809192657470703
13-02-1990,2.9375,2.9375,26400,2.953125,2.953125,2.114483118057251
14-02-1990,2.9375,2.953125,32800,2.96875,2.9375,2.103295087814331
15-02-1990,2.953125,2.953125,152000,2.96875,2.953125,2.114483118057251
16-02-1990,2.96875,2.96875,32000,2.96875,2.96875,2.1256697177886963
20-02-1990,2.953125,2.984375,23200,2.984375,2.953125,2.114483118057251
21-02-1990,2.90625,2.953125,553600,2.953125,2.90625,2.0809192657470703
22-02-1990,2.84375,2.90625,148000,2.90625,2.84375,2.0361685752868652
23-02-1990,2.6875,2.78125,575200,2.78125,2.71875,1.9466663599014282
26-02-1990,2.734375,2.734375,477600,2.75,2.75,1.969041109085083
27-02-1990,2.765625,2.765625,357600,2.84375,2.84375,2.0361685752868652
28-02-1990,2.796875,2.8125,145600,2.828125,2.796875,2.002605676651001
01-03-1990,2.75,2.796875,225600,2.796875,2.75,1.969041109085083
02-03-1990,2.6875,2.75,931200,2.78125,2.703125,1.9354791641235352
05-03-1990,2.65625,2.671875,146400,2.703125,2.671875,1.9131028652191162
06-03-1990,2.625,2.671875,258400,2.734375,2.734375,1.9578546285629272
07-03-1990,2.703125,2.734375,174400,2.75,2.75,1.969041109085083
08-03-1990,2.734375,2.75,146400,2.796875,2.78125,1.9914181232452393
09-03-1990,2.734375,2.75,194400,2.78125,2.734375,1.9578546285629272
12-03-1990,2.625,2.703125,1072800,2.71875,2.6875,1.9242914915084839
13-03-1990,2.671875,2.671875,662400,2.6875,2.6875,1.9242914915084839
14-03-1990,2.671875,2.671875,298400,2.765625,2.765625,1.9802294969558716
15-03-1990,2.71875,2.78125,192000,2.796875,2.71875,1.9466663599014282
16-03-1990,2.734375,2.75,271200,2.78125,2.78125,1.9914181232452393
19-03-1990,2.75,2.75,476000,2.765625,2.765625,1.9802294969558716
20-03-1990,2.75,2.75,898400,2.90625,2.796875,2.002605676651001
21-03-1990,2.796875,2.796875,102400,2.8125,2.796875,2.002605676651001
22-03-1990,2.75,2.75,177600,2.765625,2.765625,1.9802294969558716
23-03-1990,2.796875,2.796875,320000,2.796875,2.796875,2.002605676651001
26-03-1990,2.75,2.78125,37600,2.78125,2.75,1.969041109085083
27-03-1990,2.734375,2.734375,24000,2.75,2.75,1.969041109085083
28-03-1990,2.84375,2.84375,706400,2.9375,2.921875,2.0921072959899902
29-03-1990,2.890625,2.921875,361600,2.9375,2.90625,2.0809192657470703
30-03-1990,2.921875,2.921875,161600,2.921875,2.921875,2.0921072959899902
02-04-1990,2.84375,2.921875,184800,2.921875,2.875,2.058544635772705
03-04-1990,2.875,2.875,358400,3.03125,2.984375,2.1368579864501953
04-04-1990,2.90625,2.984375,364800,2.984375,2.90625,2.0809192657470703
05-04-1990,2.90625,2.9375,373600,2.953125,2.90625,2.0809192657470703
06-04-1990,2.78125,2.921875,810400,2.921875,2.78125,1.9914181232452393
09-04-1990,2.734375,2.734375,336800,2.765625,2.734375,1.9622644186019897
10-04-1990,2.71875,2.75,426400,2.8125,2.765625,1.984688639640808
11-04-1990,2.71875,2.78125,234400,2.8125,2.734375,1.9622644186019897
12-04-1990,2.59375,2.71875,456000,2.734375,2.625,1.8837735652923584
16-04-1990,2.640625,2.640625,273600,2.734375,2.703125,1.9398380517959595
17-04-1990,2.703125,2.71875,16800,2.71875,2.71875,1.951051115989685
18-04-1990,2.6875,2.6875,333600,2.75,2.71875,1.951051115989685
19-04-1990,2.671875,2.71875,207200,2.71875,2.6875,1.9286249876022339
20-04-1990,2.65625,2.671875,168800,2.6875,2.671875,1.9174113273620605
23-04-1990,2.625,2.65625,173600,2.65625,2.625,1.8837735652923584
24-04-1990,2.625,2.625,458400,2.671875,2.625,1.8837735652923584
25-04-1990,2.640625,2.65625,104000,2.671875,2.65625,1.906198501586914
26-04-1990,2.625,2.625,461600,2.6875,2.6875,1.9286249876022339
27-04-1990,2.6875,2.6875,133600,2.703125,2.703125,1.9398380517959595
30-04-1990,2.6875,2.703125,68800,2.71875,2.71875,1.951051115989685
01-05-1990,2.6875,2.71875,732800,2.828125,2.8125,2.0183284282684326
02-05-1990,2.765625,2.78125,575200,2.828125,2.8125,2.0183284282684326
03-05-1990,2.828125,2.84375,105600,2.859375,2.828125,2.029540777206421
04-05-1990,2.78125,2.84375,279200,2.84375,2.78125,1.9959032535552979
07-05-1990,2.78125,2.78125,32800,2.84375,2.84375,2.040754556655884
08-05-1990,2.828125,2.84375,48800,2.84375,2.828125,2.029540777206421
09-05-1990,2.796875,2.84375,1232800,2.859375,2.796875,2.0071158409118652
10-05-1990,2.796875,2.8125,428000,2.84375,2.796875,2.0071158409118652
11-05-1990,2.828125,2.828125,172000,2.875,2.875,2.063180685043335
14-05-1990,2.75,2.890625,2418400,2.890625,2.75,1.9734762907028198
15-05-1990,2.75,2.78125,5804800,2.828125,2.8125,2.0183284282684326
16-05-1990,2.8125,2.8125,367200,2.96875,2.90625,2.085606098175049
17-05-1990,2.921875,2.921875,196000,2.953125,2.953125,2.1192455291748047
18-05-1990,2.96875,2.96875,181600,3.0,3.0,2.1528849601745605
21-05-1990,2.921875,2.96875,74400,2.96875,2.953125,2.1192455291748047
22-05-1990,2.96875,2.984375,40800,2.984375,2.96875,2.130458116531372
23-05-1990,2.90625,2.96875,30400,2.96875,2.90625,2.085606098175049
24-05-1990,2.75,2.921875,483200,2.921875,2.8125,2.0183284282684326
25-05-1990,2.75,2.8125,817600,2.875,2.875,2.063180685043335
29-05-1990,2.890625,2.890625,60800,2.90625,2.90625,2.085606098175049
30-05-1990,2.921875,2.9375,129600,2.984375,2.96875,2.130458116531372
31-05-1990,2.90625,2.9375,143200,2.984375,2.96875,2.130458116531372
01-06-1990,2.953125,2.96875,47200,2.984375,2.96875,2.130458116531372
04-06-1990,2.90625,2.9375,68000,2.984375,2.984375,2.1416707038879395
05-06-1990,2.796875,2.984375,1125600,3.0,2.890625,2.074392557144165
06-06-1990,2.875,2.890625,44000,2.90625,2.875,2.063180685043335
07-06-1990,2.859375,2.890625,212800,2.890625,2.859375,2.051966667175293
08-06-1990,2.8125,2.875,405600,2.875,2.84375,2.040754556655884
11-06-1990,2.84375,2.859375,48800,2.890625,2.875,2.063180685043335
12-06-1990,2.859375,2.90625,196000,3.0,2.984375,2.1416707038879395
13-06-1990,2.96875,2.96875,208000,3.09375,2.96875,2.130458116531372
14-06-1990,2.9375,2.953125,20800,2.984375,2.984375,2.1416707038879395
15-06-1990,2.921875,2.984375,158400,2.984375,2.96875,2.130458116531372
18-06-1990,2.96875,2.96875,1600,2.96875,2.96875,2.130458116531372
19-06-1990,2.875,2.9375,174400,2.9375,2.921875,2.0968191623687744
20-06-1990,2.90625,2.953125,127200,2.953125,2.9375,2.108031749725342
21-06-1990,2.921875,2.921875,6400,2.9375,2.9375,2.108031749725342
22-06-1990,2.921875,2.9375,356800,2.953125,2.953125,2.1192455291748047
25-06-1990,2.90625,2.921875,24800,2.9375,2.921875,2.0968191623687744
26-06-1990,2.859375,2.90625,207200,2.921875,2.921875,2.0968191623687744
27-06-1990,2.921875,2.921875,13600,2.9375,2.921875,2.0968191623687744
28-06-1990,2.9375,2.9375,157600,2.96875,2.96875,2.130458116531372
29-06-1990,2.953125,2.984375,327200,2.984375,2.96875,2.130458116531372
02-07-1990,2.875,2.953125,322400,2.953125,2.90625,2.085606098175049
03-07-1990,2.875,2.9375,308800,2.9375,2.875,2.063180685043335
05-07-1990,2.8125,2.84375,596800,2.84375,2.828125,2.029540777206421
06-07-1990,2.78125,2.78125,82400,2.796875,2.796875,2.0071158409118652
09-07-1990,2.75,2.796875,724800,2.8125,2.78125,1.9959032535552979
10-07-1990,2.765625,2.78125,1073600,2.78125,2.78125,2.000398874282837
11-07-1990,2.78125,2.78125,776000,2.8125,2.796875,2.011636972427368
12-07-1990,2.796875,2.796875,1208800,2.90625,2.875,2.067826986312866
13-07-1990,2.90625,2.90625,568000,3.0,2.96875,2.135256767272949
16-07-1990,2.96875,2.984375,680800,3.0,2.96875,2.135256767272949
17-07-1990,2.921875,2.96875,102400,2.96875,2.921875,2.10154128074646
18-07-1990,2.84375,2.921875,348000,2.921875,2.84375,2.0453505516052246
19-07-1990,2.796875,2.8125,465600,2.875,2.875,2.067826986312866
20-07-1990,2.890625,2.890625,51200,2.90625,2.890625,2.07906436920166
23-07-1990,2.859375,2.875,349600,2.9375,2.9375,2.1127803325653076
24-07-1990,2.90625,2.90625,353600,3.015625,2.984375,2.1464943885803223
25-07-1990,3.0,3.015625,52000,3.03125,3.03125,2.180209159851074
26-07-1990,3.03125,3.0625,80000,3.0625,3.0625,2.2026851177215576
27-07-1990,2.984375,3.03125,75200,3.0625,2.984375,2.1464943885803223
30-07-1990,2.984375,3.0,160800,3.0,3.0,2.1577329635620117
31-07-1990,2.953125,2.953125,175200,3.015625,3.0,2.1577329635620117
01-08-1990,3.0,3.03125,134400,3.0625,3.015625,2.1689703464508057
02-08-1990,3.03125,3.125,1056800,3.171875,3.171875,2.2813525199890137
03-08-1990,3.109375,3.15625,1272000,3.265625,3.203125,2.3038299083709717
06-08-1990,3.125,3.25,247200,3.265625,3.125,2.24763822555542
07-08-1990,3.125,3.125,148800,3.140625,3.140625,2.2588765621185303
08-08-1990,3.09375,3.125,170400,3.140625,3.09375,2.225161552429199
09-08-1990,3.0625,3.09375,296000,3.09375,3.09375,2.225161552429199
10-08-1990,3.09375,3.09375,299200,3.109375,3.09375,2.225161552429199
13-08-1990,3.078125,3.109375,56800,3.125,3.078125,2.2139244079589844
14-08-1990,3.0625,3.109375,49600,3.109375,3.0625,2.2026851177215576
15-08-1990,3.0625,3.0625,196000,3.15625,3.125,2.24763822555542
16-08-1990,3.078125,3.109375,140000,3.125,3.109375,2.2363994121551514
17-08-1990,3.125,3.140625,201600,3.1875,3.140625,2.2588765621185303
20-08-1990,3.046875,3.15625,239200,3.15625,3.046875,2.1914477348327637
21-08-1990,3.0625,3.0625,452000,3.09375,3.078125,2.2139244079589844
22-08-1990,3.015625,3.0625,333600,3.09375,3.015625,2.1689703464508057
23-08-1990,2.9375,3.0,364000,3.0,2.96875,2.135256767272949
24-08-1990,2.921875,2.921875,326400,3.0,3.0,2.1577329635620117
27-08-1990,2.953125,3.0,88000,3.0,2.953125,2.124018669128418
28-08-1990,2.953125,2.953125,8000,2.984375,2.984375,2.1464943885803223
29-08-1990,2.9375,3.015625,140800,3.015625,2.9375,2.1127803325653076
30-08-1990,2.90625,2.953125,65600,2.984375,2.984375,2.1464943885803223
31-08-1990,2.890625,2.953125,256800,2.984375,2.921875,2.10154128074646
04-09-1990,2.9375,2.9375,20000,2.953125,2.953125,2.124018669128418
05-09-1990,2.953125,2.953125,223200,3.1875,3.171875,2.2813525199890137
06-09-1990,3.1875,3.203125,317600,3.296875,3.296875,2.3712587356567383
07-09-1990,3.296875,3.296875,160800,3.359375,3.359375,2.4162116050720215
10-09-1990,3.328125,3.328125,1408800,3.390625,3.359375,2.4162116050720215
11-09-1990,3.1875,3.375,963200,3.375,3.3125,2.3824968338012695
12-09-1990,3.265625,3.34375,336000,3.34375,3.3125,2.3824968338012695
13-09-1990,3.25,3.3125,405600,3.328125,3.25,2.3375442028045654
14-09-1990,3.25,3.25,209600,3.390625,3.390625,2.438687562942505
17-09-1990,3.375,3.390625,1116000,3.46875,3.46875,2.494878053665161
18-09-1990,3.46875,3.46875,776800,3.765625,3.671875,2.6409752368927
19-09-1990,3.65625,3.6875,1624800,3.6875,3.65625,2.6297361850738525
20-09-1990,3.53125,3.65625,432000,3.65625,3.53125,2.5398316383361816
21-09-1990,3.46875,3.484375,521600,3.5625,3.5625,2.562307596206665
24-09-1990,3.484375,3.5625,112800,3.5625,3.515625,2.528594493865967
25-09-1990,3.5,3.5,221600,3.515625,3.515625,2.528594493865967
26-09-1990,3.453125,3.515625,55200,3.515625,3.46875,2.494878053665161
27-09-1990,3.375,3.4375,72800,3.453125,3.375,2.4274492263793945
28-09-1990,3.28125,3.375,163200,3.375,3.34375,2.4049735069274902
01-10-1990,3.296875,3.328125,455200,3.390625,3.34375,2.4049735069274902
02-10-1990,3.328125,3.359375,72000,3.359375,3.359375,2.4162116050720215
03-10-1990,3.3125,3.34375,26400,3.34375,3.34375,2.4049735069274902
04-10-1990,3.25,3.34375,313600,3.34375,3.25,2.3375442028045654
05-10-1990,3.1875,3.234375,550400,3.296875,3.1875,2.292590618133545
08-10-1990,3.1875,3.203125,411200,3.234375,3.1875,2.292590618133545
09-10-1990,3.203125,3.203125,298400,3.375,3.34375,2.4096977710723877
10-10-1990,3.21875,3.34375,200000,3.34375,3.234375,2.3308756351470947
11-10-1990,3.203125,3.25,34400,3.25,3.21875,2.3196167945861816
12-10-1990,3.171875,3.1875,89600,3.203125,3.203125,2.3083553314208984
15-10-1990,3.15625,3.203125,36800,3.203125,3.15625,2.2745745182037354
16-10-1990,3.109375,3.140625,153600,3.15625,3.109375,2.2407946586608887
17-10-1990,3.09375,3.109375,11200,3.125,3.125,2.25205397605896
18-10-1990,3.109375,3.109375,113600,3.125,3.109375,2.2407946586608887
19-10-1990,3.078125,3.109375,36800,3.109375,3.09375,2.2295331954956055
22-10-1990,3.0625,3.109375,68000,3.109375,3.0625,2.20701265335083
23-10-1990,3.0625,3.0625,17600,3.109375,3.109375,2.2407946586608887
24-10-1990,3.125,3.125,120000,3.15625,3.15625,2.2745745182037354
25-10-1990,3.1875,3.1875,112800,3.328125,3.328125,2.3984384536743164
26-10-1990,3.3125,3.3125,22400,3.359375,3.359375,2.4209582805633545
29-10-1990,3.359375,3.375,16000,3.375,3.359375,2.4209582805633545
30-10-1990,3.28125,3.34375,29600,3.359375,3.296875,2.3759167194366455
31-10-1990,3.3125,3.3125,366400,3.453125,3.375,2.432218074798584
01-11-1990,3.359375,3.375,163200,3.375,3.375,2.432218074798584
02-11-1990,3.375,3.375,469600,3.53125,3.5,2.5223004817962646
05-11-1990,3.46875,3.53125,426400,3.546875,3.46875,2.4997804164886475
06-11-1990,3.421875,3.484375,8800,3.484375,3.421875,2.4659996032714844
07-11-1990,3.375,3.421875,148000,3.421875,3.375,2.432218074798584
08-11-1990,3.34375,3.34375,37600,3.390625,3.390625,2.4434800148010254
09-11-1990,3.375,3.375,397600,3.4375,3.421875,2.4659996032714844
12-11-1990,3.328125,3.390625,76800,3.390625,3.328125,2.3984384536743164
13-11-1990,3.109375,3.15625,208000,3.15625,3.109375,2.2407946586608887
14-11-1990,3.109375,3.125,75200,3.1875,3.1875,2.2970950603485107
15-11-1990,3.125,3.15625,45600,3.171875,3.140625,2.2633135318756104
16-11-1990,3.09375,3.140625,300800,3.15625,3.15625,2.2745745182037354
19-11-1990,2.984375,3.15625,456800,3.15625,2.984375,2.150712728500366
20-11-1990,2.84375,2.96875,329600,2.96875,2.921875,2.1056697368621826
21-11-1990,2.890625,2.90625,32800,2.96875,2.96875,2.139450788497925
23-11-1990,2.96875,2.96875,18400,2.984375,2.96875,2.139450788497925
26-11-1990,2.96875,2.984375,40000,3.0,2.96875,2.139450788497925
27-11-1990,2.9375,2.984375,39200,2.984375,2.953125,2.1281917095184326
28-11-1990,2.90625,2.953125,145600,2.953125,2.921875,2.1056697368621826
29-11-1990,2.90625,2.90625,36800,2.90625,2.90625,2.0944108963012695
30-11-1990,2.765625,2.875,236000,2.890625,2.8125,2.026848793029785
03-12-1990,2.609375,2.796875,366400,2.796875,2.75,1.9818075895309448
04-12-1990,2.671875,2.734375,230400,2.734375,2.71875,1.9592876434326172
05-12-1990,2.71875,2.71875,432000,2.796875,2.78125,2.0043294429779053
06-12-1990,2.734375,2.78125,248800,2.8125,2.75,1.9818075895309448
07-12-1990,2.625,2.71875,257600,2.71875,2.71875,1.9592876434326172
10-12-1990,2.703125,2.734375,179200,2.734375,2.71875,1.9592876434326172
11-12-1990,2.703125,2.703125,981600,2.78125,2.734375,1.9705471992492676
12-12-1990,2.734375,2.75,493600,2.78125,2.78125,2.0043294429779053
13-12-1990,2.71875,2.75,908000,2.75,2.71875,1.9592876434326172
14-12-1990,2.65625,2.71875,207200,2.78125,2.78125,2.0043294429779053
17-12-1990,2.734375,2.796875,89600,2.828125,2.734375,1.9705471992492676
18-12-1990,2.703125,2.765625,153600,2.796875,2.703125,1.9480267763137817
19-12-1990,2.640625,2.703125,277600,2.734375,2.640625,1.9029860496520996
20-12-1990,2.546875,2.609375,1007200,2.609375,2.5625,1.8466861248016357
21-12-1990,2.484375,2.484375,980000,2.515625,2.5,1.8016433715820312
24-12-1990,2.5,2.5,222400,2.546875,2.546875,1.8354237079620361
26-12-1990,2.5625,2.5625,93600,2.75,2.75,1.9818075895309448
27-12-1990,2.71875,2.75,51200,2.75,2.734375,1.9705471992492676
28-12-1990,2.65625,2.71875,49600,2.71875,2.65625,1.9142457246780396
31-12-1990,2.53125,2.65625,364800,2.65625,2.65625,1.9142457246780396
02-01-1991,2.59375,2.625,36000,2.625,2.59375,1.869204044342041
03-01-1991,2.484375,2.59375,413600,2.59375,2.484375,1.7903834581375122
04-01-1991,2.328125,2.4375,216800,2.4375,2.328125,1.6777794361114502
07-01-1991,2.21875,2.296875,599200,2.3125,2.265625,1.632739782333374
08-01-1991,2.15625,2.25,679200,2.265625,2.15625,1.5539169311523438
09-01-1991,2.140625,2.171875,572000,2.1875,2.140625,1.5471420288085938
10-01-1991,2.09375,2.125,296000,2.140625,2.140625,1.5471420288085938
11-01-1991,2.109375,2.109375,278400,2.21875,2.21875,1.603607177734375
14-01-1991,2.21875,2.234375,172800,2.265625,2.25,1.62619149684906
15-01-1991,2.171875,2.25,92800,2.25,2.234375,1.61489999294281
16-01-1991,2.171875,2.234375,50400,2.25,2.203125,1.5923138856887817
17-01-1991,2.03125,2.1875,1341600,2.25,2.203125,1.5923138856887817
18-01-1991,2.15625,2.203125,275200,2.21875,2.1875,1.581020474433899
21-01-1991,2.0625,2.15625,550400,2.15625,2.125,1.5358480215072632
22-01-1991,2.125,2.15625,174400,2.171875,2.125,1.5358480215072632
23-01-1991,2.140625,2.140625,837600,2.265625,2.25,1.62619149684906
24-01-1991,2.265625,2.3125,495200,2.34375,2.28125,1.6487789154052734
25-01-1991,2.21875,2.3125,817600,2.375,2.25,1.62619149684906
28-01-1991,2.203125,2.28125,679200,2.296875,2.234375,1.61489999294281
29-01-1991,2.25,2.25,99200,2.265625,2.25,1.62619149684906
30-01-1991,2.203125,2.21875,132000,2.25,2.234375,1.61489999294281
31-01-1991,2.15625,2.21875,384800,2.21875,2.171875,1.5697280168533325
01-02-1991,2.15625,2.15625,869600,2.21875,2.21875,1.603607177734375
04-02-1991,2.203125,2.21875,961600,2.28125,2.25,1.62619149684906
05-02-1991,2.25,2.25,1217600,2.375,2.28125,1.6487789154052734
06-02-1991,2.28125,2.28125,1186400,2.5,2.484375,1.7955881357192993
07-02-1991,2.546875,2.546875,1224000,2.78125,2.6875,1.9423965215682983
08-02-1991,2.640625,2.65625,94400,2.6875,2.671875,1.931103229522705
11-02-1991,2.640625,2.6875,307200,2.75,2.703125,1.953689694404602
12-02-1991,2.59375,2.734375,216000,2.734375,2.59375,1.8746380805969238
13-02-1991,2.625,2.625,45600,2.703125,2.703125,1.953689694404602
14-02-1991,2.515625,2.6875,148800,2.6875,2.515625,1.8181746006011963
15-02-1991,2.484375,2.484375,356800,2.609375,2.609375,1.8859323263168335
19-02-1991,2.515625,2.59375,160800,2.59375,2.546875,1.84075927734375
20-02-1991,2.515625,2.546875,219200,2.625,2.625,1.8972244262695312
21-02-1991,2.59375,2.609375,188000,2.625,2.59375,1.8746380805969238
22-02-1991,2.453125,2.59375,408000,2.59375,2.453125,1.7730023860931396
25-02-1991,2.328125,2.453125,88800,2.453125,2.328125,1.6826566457748413
26-02-1991,2.265625,2.3125,776800,2.328125,2.3125,1.6713638305664062
27-02-1991,2.34375,2.34375,1544000,2.453125,2.4375,1.7617090940475464
28-02-1991,2.453125,2.46875,578400,2.59375,2.59375,1.8746380805969238
01-03-1991,2.53125,2.59375,692800,2.59375,2.546875,1.84075927734375
04-03-1991,2.546875,2.546875,555200,2.609375,2.59375,1.8746380805969238
05-03-1991,2.5625,2.5625,418400,2.578125,2.578125,1.8633458614349365
06-03-1991,2.546875,2.546875,180800,2.59375,2.5625,1.852054476737976
07-03-1991,2.5625,2.5625,280800,2.625,2.625,1.8972244262695312
08-03-1991,2.59375,2.625,442400,2.78125,2.671875,1.931103229522705
11-03-1991,2.6875,2.6875,116000,2.75,2.71875,1.9649831056594849
12-03-1991,2.6875,2.75,163200,2.75,2.6875,1.9423965215682983
13-03-1991,2.59375,2.671875,147200,2.671875,2.59375,1.8746380805969238
14-03-1991,2.546875,2.578125,184000,2.59375,2.5625,1.852054476737976
15-03-1991,2.546875,2.546875,289600,2.65625,2.625,1.8972244262695312
18-03-1991,2.625,2.640625,136000,2.6875,2.6875,1.9423965215682983
19-03-1991,2.609375,2.65625,172000,2.65625,2.625,1.8972244262695312
20-03-1991,2.625,2.625,71200,2.65625,2.65625,1.9198107719421387
21-03-1991,2.65625,2.671875,327200,2.734375,2.734375,1.9762753248214722
22-03-1991,2.703125,2.734375,93600,2.734375,2.703125,1.953689694404602
25-03-1991,2.640625,2.71875,115200,2.71875,2.703125,1.953689694404602
26-03-1991,2.625,2.671875,447200,2.6875,2.65625,1.9198107719421387
27-03-1991,2.578125,2.640625,86400,2.640625,2.578125,1.8633458614349365
28-03-1991,2.515625,2.578125,70400,2.59375,2.515625,1.8181746006011963
01-04-1991,2.453125,2.53125,128000,2.53125,2.453125,1.7730023860931396
02-04-1991,2.359375,2.46875,367200,2.46875,2.375,1.7165364027023315
03-04-1991,2.3125,2.359375,1358400,2.4375,2.3125,1.6713638305664062
04-04-1991,2.34375,2.34375,1049600,2.40625,2.40625,1.7391223907470703
05-04-1991,2.421875,2.421875,73600,2.484375,2.484375,1.7955881357192993
08-04-1991,2.4375,2.46875,24000,2.46875,2.4375,1.7617090940475464
09-04-1991,2.375,2.40625,198400,2.4375,2.4375,1.7617090940475464
10-04-1991,2.34375,2.421875,198400,2.421875,2.390625,1.7322715520858765
11-04-1991,2.359375,2.40625,255200,2.4375,2.40625,1.7435933351516724
12-04-1991,2.390625,2.40625,398400,2.46875,2.46875,1.788881778717041
15-04-1991,2.5,2.5,258400,2.5625,2.546875,1.8454912900924683
16-04-1991,2.53125,2.53125,468000,2.640625,2.625,1.9021018743515015
17-04-1991,2.578125,2.640625,662400,2.640625,2.578125,1.8681358098983765
18-04-1991,2.609375,2.609375,68800,2.640625,2.625,1.9021018743515015
19-04-1991,2.5625,2.609375,20000,2.625,2.578125,1.8681358098983765
22-04-1991,2.484375,2.578125,263200,2.578125,2.5,1.811525821685791
23-04-1991,2.453125,2.484375,69600,2.5,2.5,1.811525821685791
24-04-1991,2.46875,2.5,44800,2.5,2.5,1.811525821685791
25-04-1991,2.46875,2.484375,70400,2.484375,2.46875,1.788881778717041
26-04-1991,2.421875,2.453125,24000,2.453125,2.4375,1.7662380933761597
29-04-1991,2.34375,2.421875,373600,2.421875,2.34375,1.698305606842041
30-04-1991,2.328125,2.375,1024800,2.375,2.375,1.7209488153457642
01-05-1991,2.34375,2.375,403200,2.421875,2.421875,1.7549164295196533
02-05-1991,2.375,2.40625,714400,2.40625,2.375,1.7209488153457642
03-05-1991,2.359375,2.40625,464000,2.4375,2.390625,1.7322715520858765
06-05-1991,2.359375,2.375,11200,2.375,2.359375,1.7096266746520996
07-05-1991,2.28125,2.375,360800,2.375,2.34375,1.698305606842041
08-05-1991,2.328125,2.34375,567200,2.453125,2.4375,1.7662380933761597
09-05-1991,2.40625,2.453125,150400,2.46875,2.46875,1.788881778717041
10-05-1991,2.375,2.453125,88800,2.453125,2.375,1.7209488153457642
13-05-1991,2.28125,2.359375,872000,2.359375,2.28125,1.6530176401138306
14-05-1991,2.28125,2.28125,366400,2.375,2.3125,1.6756606101989746
15-05-1991,2.3125,2.3125,276000,2.40625,2.390625,1.7322715520858765
16-05-1991,2.421875,2.453125,404000,2.46875,2.421875,1.7549164295196533
17-05-1991,2.390625,2.421875,25600,2.421875,2.40625,1.7435933351516724
20-05-1991,2.390625,2.40625,121600,2.4375,2.40625,1.7435933351516724
21-05-1991,2.34375,2.4375,480800,2.4375,2.375,1.7209488153457642
22-05-1991,2.375,2.375,31200,2.390625,2.390625,1.7322715520858765
23-05-1991,2.375,2.40625,240800,2.421875,2.40625,1.7435933351516724
24-05-1991,2.375,2.421875,160800,2.453125,2.390625,1.7322715520858765
28-05-1991,2.375,2.375,60000,2.453125,2.4375,1.7662380933761597
29-05-1991,2.421875,2.4375,334400,2.4375,2.4375,1.7662380933761597
30-05-1991,2.421875,2.4375,521600,2.5,2.5,1.811525821685791
31-05-1991,2.53125,2.53125,1612000,2.625,2.625,1.9021018743515015
03-06-1991,2.609375,2.65625,256000,2.6875,2.625,1.9021018743515015
04-06-1991,2.625,2.65625,1272800,2.671875,2.625,1.9021018743515015
05-06-1991,2.578125,2.625,141600,2.625,2.578125,1.8681358098983765
06-06-1991,2.5625,2.5625,201600,2.609375,2.59375,1.879456877708435
07-06-1991,2.53125,2.59375,473600,2.59375,2.53125,1.8341689109802246
10-06-1991,2.53125,2.546875,168000,2.5625,2.53125,1.8341689109802246
11-06-1991,2.4375,2.53125,155200,2.53125,2.5,1.811525821685791
12-06-1991,2.484375,2.5,51200,2.5,2.5,1.811525821685791
13-06-1991,2.484375,2.5,1600,2.5,2.484375,1.8002043962478638
14-06-1991,2.46875,2.46875,83200,2.46875,2.46875,1.788881778717041
17-06-1991,2.453125,2.46875,21600,2.46875,2.453125,1.7775602340698242
18-06-1991,2.4375,2.46875,341600,2.46875,2.46875,1.788881778717041
19-06-1991,2.46875,2.46875,170400,2.5,2.5,1.811525821685791
20-06-1991,2.375,2.4375,30400,2.4375,2.375,1.7209488153457642
21-06-1991,2.3125,2.34375,251200,2.375,2.34375,1.698305606842041
24-06-1991,2.3125,2.359375,124800,2.375,2.375,1.7209488153457642
25-06-1991,2.359375,2.375,39200,2.375,2.359375,1.7096266746520996
26-06-1991,2.296875,2.328125,188000,2.359375,2.3125,1.6756606101989746
27-06-1991,2.28125,2.3125,260800,2.34375,2.3125,1.6756606101989746
28-06-1991,2.25,2.3125,418400,2.3125,2.25,1.6303719282150269
01-07-1991,2.203125,2.25,188800,2.25,2.203125,1.596407413482666
02-07-1991,2.21875,2.21875,127200,2.25,2.234375,1.6190515756607056
03-07-1991,2.203125,2.203125,267200,2.28125,2.25,1.6303719282150269
05-07-1991,2.25,2.25,3200,2.25,2.25,1.6303719282150269
08-07-1991,2.25,2.25,192800,2.296875,2.296875,1.6643396615982056
09-07-1991,2.234375,2.28125,359200,2.3125,2.265625,1.6461743116378784
10-07-1991,2.234375,2.25,56000,2.25,2.234375,1.6234689950942993
11-07-1991,2.25,2.25,152800,2.328125,2.3125,1.6802335977554321
12-07-1991,2.28125,2.34375,1025600,2.359375,2.296875,1.6688801050186157
15-07-1991,2.328125,2.328125,791200,2.375,2.375,1.725644826889038
16-07-1991,2.34375,2.359375,1204800,2.421875,2.421875,1.7597042322158813
17-07-1991,2.4375,2.453125,1052000,2.59375,2.59375,1.884585976600647
18-07-1991,2.625,2.625,304800,2.671875,2.671875,1.9413501024246216
19-07-1991,2.609375,2.671875,73600,2.671875,2.625,1.9072929620742798
22-07-1991,2.5625,2.625,72000,2.625,2.59375,1.884585976600647
23-07-1991,2.578125,2.609375,124000,2.625,2.578125,1.8732328414916992
24-07-1991,2.578125,2.578125,39200,2.59375,2.578125,1.8732328414916992
25-07-1991,2.5625,2.5625,232800,2.578125,2.5625,1.8618805408477783
26-07-1991,2.5625,2.5625,226400,2.59375,2.59375,1.884585976600647
29-07-1991,2.59375,2.609375,6400,2.609375,2.609375,1.8959399461746216
30-07-1991,2.59375,2.59375,582400,2.65625,2.625,1.9072929620742798
31-07-1991,2.53125,2.5625,698400,2.578125,2.53125,1.839174509048462
01-08-1991,2.53125,2.53125,248800,2.578125,2.5625,1.8618805408477783
02-08-1991,2.546875,2.546875,71200,2.546875,2.546875,1.8505271673202515
05-08-1991,2.546875,2.5625,96800,2.578125,2.5625,1.8618805408477783
06-08-1991,2.5625,2.5625,457600,2.625,2.59375,1.884585976600647
07-08-1991,2.59375,2.59375,733600,2.625,2.625,1.9072929620742798
08-08-1991,2.625,2.640625,413600,2.6875,2.640625,1.9186443090438843
09-08-1991,2.625,2.625,111200,2.65625,2.65625,1.929997444152832
12-08-1991,2.640625,2.6875,223200,2.703125,2.65625,1.929997444152832
13-08-1991,2.640625,2.640625,118400,2.6875,2.6875,1.9527033567428589
14-08-1991,2.671875,2.671875,372000,2.75,2.75,1.9981149435043335
15-08-1991,2.71875,2.75,369600,2.75,2.75,1.9981149435043335
16-08-1991,2.703125,2.734375,490400,2.734375,2.703125,1.9640555381774902
19-08-1991,2.609375,2.671875,91200,2.671875,2.609375,1.8959399461746216
20-08-1991,2.609375,2.609375,22400,2.625,2.625,1.9072929620742798
21-08-1991,2.609375,2.625,78400,2.625,2.625,1.9072929620742798
22-08-1991,2.5625,2.640625,292800,2.640625,2.59375,1.884585976600647
23-08-1991,2.59375,2.59375,1125600,2.75,2.75,1.9981149435043335
26-08-1991,2.734375,2.75,183200,2.78125,2.75,1.9981149435043335
27-08-1991,2.75,2.75,362400,2.84375,2.8125,2.043527364730835
28-08-1991,2.828125,2.84375,203200,2.953125,2.9375,2.1343495845794678
29-08-1991,2.921875,2.921875,416800,3.0,2.953125,2.1457033157348633
30-08-1991,2.90625,2.96875,236800,2.96875,2.921875,2.1229968070983887
03-09-1991,2.78125,2.890625,230400,2.890625,2.78125,2.020822286605835
04-09-1991,2.75,2.765625,175200,2.8125,2.765625,2.009469509124756
05-09-1991,2.796875,2.796875,309600,2.828125,2.8125,2.043527364730835
06-09-1991,2.78125,2.8125,55200,2.828125,2.828125,2.054879903793335
09-09-1991,2.8125,2.8125,8000,2.84375,2.84375,2.066232919692993
10-09-1991,2.8125,2.828125,452800,2.84375,2.84375,2.066232919692993
11-09-1991,2.8125,2.828125,145600,2.84375,2.84375,2.066232919692993
12-09-1991,2.84375,2.859375,48000,2.859375,2.84375,2.066232919692993
13-09-1991,2.828125,2.875,366400,2.875,2.84375,2.066232919692993
16-09-1991,2.828125,2.859375,433600,2.859375,2.84375,2.066232919692993
17-09-1991,2.84375,2.84375,648800,2.890625,2.890625,2.1002907752990723
18-09-1991,2.90625,2.90625,136800,2.9375,2.9375,2.1343495845794678
19-09-1991,2.921875,2.953125,153600,3.03125,3.03125,2.202467918395996
20-09-1991,3.0,3.078125,312000,3.078125,3.03125,2.202467918395996
23-09-1991,2.96875,3.0625,113600,3.0625,2.96875,2.157055377960205
24-09-1991,2.875,2.96875,77600,2.96875,2.875,2.0889382362365723
25-09-1991,2.875,2.890625,7200,2.890625,2.875,2.0889382362365723
26-09-1991,2.875,2.90625,296000,2.953125,2.953125,2.1457033157348633
27-09-1991,2.953125,2.96875,70400,3.0,2.96875,2.157055377960205
30-09-1991,2.953125,2.953125,229600,2.984375,2.984375,2.168410301208496
01-10-1991,2.859375,2.984375,1317600,3.0,2.859375,2.0775856971740723
02-10-1991,2.84375,2.84375,740800,2.9375,2.90625,2.111644983291626
03-10-1991,2.890625,2.90625,106400,2.90625,2.890625,2.1002907752990723
04-10-1991,2.859375,2.875,599200,2.890625,2.890625,2.1002907752990723
07-10-1991,2.859375,2.875,973600,2.9375,2.9375,2.1343495845794678
08-10-1991,2.90625,2.9375,735200,2.953125,2.9375,2.138902187347412
09-10-1991,2.90625,2.9375,43200,2.9375,2.90625,2.116147756576538
10-10-1991,2.875,2.90625,144000,2.921875,2.90625,2.116147756576538
11-10-1991,2.90625,2.921875,23200,2.921875,2.921875,2.127523899078369
14-10-1991,2.9375,2.9375,32000,2.984375,2.96875,2.1616551876068115
15-10-1991,2.984375,2.984375,181600,3.015625,3.015625,2.1957881450653076
16-10-1991,3.0,3.046875,104000,3.078125,3.0,2.1844100952148438
17-10-1991,2.984375,3.0,89600,3.03125,3.03125,2.2071642875671387
18-10-1991,3.0,3.046875,87200,3.046875,3.0,2.1844100952148438
21-10-1991,2.984375,2.984375,3200,2.984375,2.984375,2.173032522201538
22-10-1991,2.875,2.953125,495200,2.953125,2.875,2.0933916568756104
23-10-1991,2.890625,2.953125,95200,2.953125,2.890625,2.104769706726074
24-10-1991,2.84375,2.875,35200,2.875,2.84375,2.0706377029418945
25-10-1991,2.75,2.8125,277600,2.8125,2.765625,2.0137524604797363
28-10-1991,2.75,2.75,181600,2.84375,2.84375,2.0706377029418945
29-10-1991,2.75,2.859375,404800,2.859375,2.765625,2.0137524604797363
30-10-1991,2.78125,2.78125,12800,2.796875,2.796875,2.0365068912506104
31-10-1991,2.796875,2.8125,37600,2.84375,2.84375,2.0706377029418945
01-11-1991,2.84375,2.859375,62400,2.9375,2.9375,2.138902187347412
04-11-1991,2.921875,2.921875,624800,3.078125,3.03125,2.2071642875671387
05-11-1991,3.046875,3.046875,421600,3.140625,3.109375,2.264050006866455
06-11-1991,3.03125,3.140625,228000,3.140625,3.03125,2.2071642875671387
07-11-1991,3.0,3.046875,206400,3.046875,3.03125,2.2071642875671387
08-11-1991,3.015625,3.015625,96800,3.0625,3.0625,2.229917526245117
11-11-1991,3.03125,3.0625,20000,3.0625,3.03125,2.2071642875671387
12-11-1991,3.0,3.0,71200,3.046875,3.03125,2.2071642875671387
13-11-1991,3.03125,3.03125,127200,3.140625,3.125,2.2754266262054443
14-11-1991,3.015625,3.125,102400,3.125,3.03125,2.2071642875671387
15-11-1991,2.890625,3.015625,141600,3.015625,2.9375,2.138902187347412
18-11-1991,2.875,2.9375,236800,2.9375,2.875,2.0933916568756104
19-11-1991,2.8125,2.890625,143200,2.890625,2.8125,2.047884702682495
20-11-1991,2.78125,2.796875,144000,2.796875,2.78125,2.0251288414001465
21-11-1991,2.78125,2.78125,202400,2.84375,2.796875,2.0365068912506104
22-11-1991,2.75,2.78125,97600,2.78125,2.75,2.0023751258850098
25-11-1991,2.75,2.75,16800,2.765625,2.765625,2.0137524604797363
26-11-1991,2.609375,2.75,346400,2.75,2.625,1.91135835647583
27-11-1991,2.625,2.640625,76800,2.65625,2.625,1.91135835647583
29-11-1991,2.640625,2.640625,28800,2.65625,2.65625,1.9341130256652832
02-12-1991,2.59375,2.65625,299200,2.671875,2.59375,1.8886038064956665
03-12-1991,2.59375,2.59375,97600,2.65625,2.65625,1.9341130256652832
04-12-1991,2.625,2.65625,20800,2.65625,2.625,1.91135835647583
05-12-1991,2.625,2.625,96800,2.6875,2.640625,1.9227358102798462
06-12-1991,2.640625,2.640625,858400,2.65625,2.640625,1.9227358102798462
09-12-1991,2.59375,2.625,57600,2.625,2.59375,1.8886038064956665
10-12-1991,2.484375,2.5625,171200,2.5625,2.5,1.8203411102294922
11-12-1991,2.453125,2.515625,415200,2.5625,2.546875,1.8544727563858032
12-12-1991,2.515625,2.515625,124000,2.53125,2.53125,1.8430947065353394
13-12-1991,2.5,2.53125,319200,2.53125,2.5,1.8203411102294922
16-12-1991,2.484375,2.5,372800,2.515625,2.515625,1.8317190408706665
17-12-1991,2.515625,2.515625,683200,2.53125,2.53125,1.8430947065353394
18-12-1991,2.546875,2.546875,112800,2.578125,2.578125,1.8772271871566772
19-12-1991,2.53125,2.5625,392800,2.5625,2.546875,1.8544727563858032
20-12-1991,2.5,2.53125,164800,2.53125,2.515625,1.8317190408706665
23-12-1991,2.421875,2.5,1115200,2.5,2.421875,1.7634546756744385
24-12-1991,2.40625,2.421875,107200,2.515625,2.515625,1.8317190408706665
26-12-1991,2.5,2.5,15200,2.515625,2.5,1.8203411102294922
27-12-1991,2.46875,2.5,48000,2.5,2.46875,1.7975871562957764
30-12-1991,2.421875,2.46875,920800,2.46875,2.4375,1.7748329639434814
31-12-1991,2.421875,2.4375,116000,2.484375,2.4375,1.7748329639434814
02-01-1992,2.390625,2.421875,732000,2.421875,2.390625,1.7407017946243286
03-01-1992,2.375,2.390625,277600,2.390625,2.375,1.729324221611023
06-01-1992,2.3125,2.390625,528000,2.390625,2.328125,1.6951923370361328
07-01-1992,2.140625,2.3125,584000,2.3125,2.140625,1.5586680173873901
08-01-1992,2.109375,2.125,692800,2.203125,2.125,1.547289252281189
09-01-1992,2.109375,2.125,348000,2.171875,2.171875,1.619529128074646
10-01-1992,2.140625,2.15625,840800,2.234375,2.234375,1.6661335229873657
13-01-1992,2.234375,2.234375,456000,2.328125,2.296875,1.7127387523651123
14-01-1992,2.21875,2.296875,281600,2.3125,2.21875,1.6544820070266724
15-01-1992,2.234375,2.234375,377600,2.296875,2.28125,1.7010873556137085
16-01-1992,2.28125,2.28125,80800,2.328125,2.328125,1.7360411882400513
17-01-1992,2.359375,2.359375,47200,2.421875,2.421875,1.805948257446289
20-01-1992,2.421875,2.421875,91200,2.53125,2.515625,1.875856876373291
21-01-1992,2.515625,2.53125,578400,2.546875,2.515625,1.875856876373291
22-01-1992,2.484375,2.515625,300000,2.515625,2.484375,1.852553129196167
23-01-1992,2.453125,2.46875,313600,2.5,2.453125,1.8292522430419922
24-01-1992,2.3125,2.453125,1104800,2.453125,2.3125,1.7243897914886475
27-01-1992,2.25,2.296875,292800,2.296875,2.265625,1.689436674118042
28-01-1992,2.1875,2.265625,2736800,2.265625,2.1875,1.631179690361023
29-01-1992,2.15625,2.203125,463200,2.25,2.203125,1.6428303718566895
30-01-1992,2.140625,2.140625,405600,2.21875,2.1875,1.631179690361023
31-01-1992,2.1875,2.203125,714400,2.296875,2.25,1.6777843236923218
03-02-1992,2.21875,2.265625,96800,2.265625,2.234375,1.6661335229873657
04-02-1992,2.1875,2.21875,355200,2.234375,2.203125,1.6428303718566895
05-02-1992,2.15625,2.203125,604000,2.203125,2.171875,1.619529128074646
06-02-1992,2.09375,2.1875,492800,2.1875,2.09375,1.561271071434021
07-02-1992,2.078125,2.078125,704000,2.21875,2.21875,1.6544820070266724
10-02-1992,2.234375,2.234375,782400,2.34375,2.328125,1.7360411882400513
11-02-1992,2.3125,2.328125,241600,2.34375,2.3125,1.7243897914886475
12-02-1992,2.28125,2.3125,446400,2.328125,2.3125,1.7243897914886475
13-02-1992,2.296875,2.3125,161600,2.3125,2.296875,1.7127387523651123
14-02-1992,2.28125,2.296875,190400,2.328125,2.328125,1.7360411882400513
18-02-1992,2.28125,2.3125,504800,2.3125,2.296875,1.7127387523651123
19-02-1992,2.265625,2.28125,20800,2.28125,2.265625,1.689436674118042
20-02-1992,2.265625,2.265625,260800,2.296875,2.296875,1.7127387523651123
21-02-1992,2.296875,2.296875,311200,2.328125,2.3125,1.7243897914886475
24-02-1992,2.3125,2.328125,249600,2.34375,2.3125,1.7243897914886475
25-02-1992,2.28125,2.3125,144000,2.3125,2.28125,1.7010873556137085
26-02-1992,2.25,2.265625,835200,2.265625,2.265625,1.689436674118042
27-02-1992,2.25,2.25,67200,2.296875,2.265625,1.689436674118042
28-02-1992,2.234375,2.234375,321600,2.265625,2.234375,1.6661335229873657
02-03-1992,2.25,2.25,588800,2.296875,2.25,1.6777843236923218
03-03-1992,2.25,2.265625,608800,2.28125,2.25,1.6777843236923218
04-03-1992,2.234375,2.234375,488000,2.25,2.25,1.6777843236923218
05-03-1992,2.265625,2.265625,607200,2.28125,2.28125,1.7010873556137085
06-03-1992,2.28125,2.28125,404800,2.296875,2.28125,1.7010873556137085
09-03-1992,2.28125,2.28125,348000,2.328125,2.328125,1.7360411882400513
10-03-1992,2.328125,2.328125,348000,2.40625,2.390625,1.782645344734192
11-03-1992,2.390625,2.40625,376000,2.40625,2.40625,1.794298529624939
12-03-1992,2.40625,2.4375,347200,2.4375,2.40625,1.794298529624939
13-03-1992,2.421875,2.4375,138400,2.46875,2.46875,1.8409020900726318
16-03-1992,2.40625,2.5,122400,2.5,2.40625,1.794298529624939
17-03-1992,2.421875,2.4375,569600,2.4375,2.4375,1.8176007270812988
18-03-1992,2.40625,2.421875,46400,2.421875,2.40625,1.794298529624939
19-03-1992,2.375,2.4375,394400,2.4375,2.40625,1.794298529624939
20-03-1992,2.453125,2.46875,232000,2.484375,2.46875,1.8409020900726318
23-03-1992,2.5,2.5,545600,2.546875,2.5,1.8642057180404663
24-03-1992,2.5,2.5,618400,2.578125,2.5625,1.910810112953186
25-03-1992,2.5625,2.578125,116800,2.578125,2.578125,1.9224618673324585
26-03-1992,2.609375,2.609375,959200,2.734375,2.6875,2.004020929336548
27-03-1992,2.609375,2.625,236800,2.65625,2.625,1.957416296005249
30-03-1992,2.609375,2.625,324800,2.625,2.625,1.957416296005249
31-03-1992,2.640625,2.640625,307200,2.65625,2.65625,1.980717658996582
01-04-1992,2.609375,2.65625,172800,2.65625,2.609375,1.9457666873931885
02-04-1992,2.578125,2.609375,878400,2.609375,2.59375,1.9341124296188354
03-04-1992,2.546875,2.5625,109600,2.5625,2.5625,1.910810112953186
06-04-1992,2.578125,2.578125,336000,2.734375,2.734375,2.0389750003814697
07-04-1992,2.6875,2.734375,612000,2.734375,2.6875,2.041346788406372
08-04-1992,2.625,2.671875,771200,2.671875,2.625,1.993874430656433
09-04-1992,2.609375,2.609375,170400,2.75,2.75,2.0938057899475098
10-04-1992,2.734375,2.734375,213600,2.75,2.734375,2.0819106101989746
13-04-1992,2.75,2.765625,141600,2.78125,2.765625,2.1057021617889404
14-04-1992,2.78125,2.78125,228000,2.8125,2.8125,2.1413931846618652
15-04-1992,2.8125,2.8125,312000,2.828125,2.828125,2.1532905101776123
16-04-1992,2.8125,2.8125,39200,2.828125,2.8125,2.1413931846618652
20-04-1992,2.8125,2.8125,245600,2.890625,2.890625,2.2008752822875977
21-04-1992,2.875,2.921875,337600,2.921875,2.90625,2.2127723693847656
22-04-1992,2.875,2.890625,8800,2.890625,2.875,2.1889796257019043
23-04-1992,2.84375,2.875,1366400,2.984375,2.875,2.1889796257019043
24-04-1992,3.0,3.03125,687200,3.171875,3.0,2.2841525077819824
27-04-1992,3.03125,3.0625,511200,3.09375,3.046875,2.319842576980591
28-04-1992,3.015625,3.046875,234400,3.046875,3.03125,2.3079466819763184
29-04-1992,3.03125,3.046875,237600,3.046875,3.03125,2.3079466819763184
30-04-1992,3.03125,3.046875,1008800,3.0625,3.046875,2.319842576980591
01-05-1992,3.03125,3.03125,146400,3.046875,3.046875,2.319842576980591
04-05-1992,3.0625,3.0625,251200,3.078125,3.0625,2.331739664077759
05-05-1992,3.046875,3.046875,532000,3.078125,3.078125,2.3436355590820312
06-05-1992,3.015625,3.078125,792800,3.078125,3.015625,2.296048402786255
07-05-1992,2.96875,3.015625,61600,3.015625,2.96875,2.260359048843384
08-05-1992,2.9375,3.0,42400,3.0,2.953125,2.248461961746216
11-05-1992,2.90625,2.953125,91200,2.953125,2.90625,2.2127723693847656
12-05-1992,2.75,2.921875,1191200,2.921875,2.796875,2.1294960975646973
13-05-1992,2.765625,2.796875,261600,2.796875,2.765625,2.1057021617889404
14-05-1992,2.6875,2.765625,1236800,2.84375,2.84375,2.1651856899261475
15-05-1992,2.8125,2.828125,509600,2.90625,2.890625,2.2008752822875977
18-05-1992,2.90625,2.90625,431200,3.015625,3.0,2.2841525077819824
19-05-1992,2.953125,3.0,572000,3.046875,3.046875,2.319842576980591
20-05-1992,3.0625,3.0625,200800,3.09375,3.09375,2.355531692504883
21-05-1992,3.078125,3.078125,946400,3.15625,3.09375,2.355531692504883
22-05-1992,3.078125,3.09375,230400,3.15625,3.140625,2.3912229537963867
26-05-1992,3.125,3.140625,1300800,3.1875,3.1875,2.4269118309020996
27-05-1992,3.125,3.203125,1122400,3.25,3.125,2.3793256282806396
28-05-1992,3.078125,3.140625,627200,3.140625,3.125,2.3793256282806396
29-05-1992,3.078125,3.125,368800,3.125,3.09375,2.355531692504883
01-06-1992,3.078125,3.078125,348800,3.171875,3.171875,2.415015697479248
02-06-1992,3.125,3.140625,108000,3.15625,3.140625,2.3912229537963867
03-06-1992,3.125,3.15625,1278400,3.1875,3.15625,2.40311861038208
04-06-1992,3.125,3.125,1169600,3.140625,3.140625,2.3912229537963867
05-06-1992,3.140625,3.15625,816800,3.1875,3.1875,2.4269118309020996
08-06-1992,3.21875,3.21875,1822400,3.375,3.3125,2.5220844745635986
09-06-1992,3.28125,3.3125,2077600,3.34375,3.3125,2.5220844745635986
10-06-1992,3.21875,3.3125,778400,3.3125,3.28125,2.4982922077178955
11-06-1992,3.28125,3.28125,438400,3.40625,3.40625,2.5934643745422363
12-06-1992,3.34375,3.375,2042400,3.375,3.34375,2.5458788871765137
15-06-1992,3.296875,3.328125,2438400,3.328125,3.3125,2.5220844745635986
16-06-1992,3.296875,3.328125,660800,3.328125,3.296875,2.510188341140747
17-06-1992,3.21875,3.3125,673600,3.3125,3.234375,2.462602376937866
18-06-1992,3.21875,3.21875,948800,3.265625,3.234375,2.462602376937866
19-06-1992,3.234375,3.25,417600,3.265625,3.234375,2.462602376937866
22-06-1992,3.203125,3.203125,568000,3.21875,3.203125,2.4388089179992676
23-06-1992,3.203125,3.203125,518400,3.21875,3.203125,2.4388089179992676
24-06-1992,3.171875,3.21875,224000,3.21875,3.21875,2.4507052898406982
25-06-1992,3.125,3.21875,307200,3.21875,3.125,2.3793256282806396
26-06-1992,3.109375,3.125,629600,3.140625,3.140625,2.3912229537963867
29-06-1992,3.125,3.125,1169600,3.1875,3.171875,2.415015697479248
30-06-1992,3.15625,3.1875,1156800,3.1875,3.1875,2.4269118309020996
01-07-1992,3.203125,3.21875,694400,3.25,3.25,2.474499464035034
02-07-1992,3.25,3.28125,2007200,3.296875,3.28125,2.4982922077178955
06-07-1992,3.296875,3.3125,771200,3.328125,3.3125,2.5220844745635986
07-07-1992,3.3125,3.3125,655200,3.359375,3.328125,2.5339810848236084
08-07-1992,3.3125,3.328125,480800,3.34375,3.328125,2.5339810848236084
09-07-1992,3.328125,3.34375,424000,3.375,3.359375,2.562586784362793
10-07-1992,3.328125,3.390625,568800,3.390625,3.328125,2.5387496948242188
13-07-1992,3.328125,3.328125,624800,3.359375,3.359375,2.562586784362793
14-07-1992,3.390625,3.390625,627200,3.625,3.578125,2.729454278945923
15-07-1992,3.515625,3.59375,465600,3.609375,3.53125,2.693697452545166
16-07-1992,3.390625,3.5,143200,3.5,3.421875,2.6102638244628906
17-07-1992,3.421875,3.4375,45600,3.453125,3.4375,2.6221821308135986
20-07-1992,3.390625,3.4375,645600,3.453125,3.390625,2.5864245891571045
21-07-1992,3.390625,3.390625,224000,3.421875,3.40625,2.598344087600708
22-07-1992,3.40625,3.40625,235200,3.484375,3.484375,2.6579396724700928
23-07-1992,3.46875,3.5,112000,3.515625,3.5,2.669858932495117
24-07-1992,3.5,3.5,329600,3.609375,3.609375,2.7532918453216553
27-07-1992,3.5625,3.609375,66400,3.609375,3.59375,2.7413721084594727
28-07-1992,3.53125,3.59375,91200,3.59375,3.5625,2.7175345420837402
29-07-1992,3.546875,3.5625,84800,3.578125,3.578125,2.729454278945923
30-07-1992,3.5625,3.5625,565600,3.640625,3.640625,2.777129650115967
31-07-1992,3.625,3.640625,500800,3.65625,3.640625,2.777129650115967
03-08-1992,3.625,3.625,492000,3.703125,3.703125,2.824805498123169
04-08-1992,3.6875,3.6875,398400,3.71875,3.71875,2.836724281311035
05-08-1992,3.375,3.59375,268800,3.59375,3.40625,2.598344087600708
06-08-1992,3.171875,3.25,1166400,3.265625,3.25,2.4791548252105713
07-08-1992,3.25,3.25,996000,3.515625,3.515625,2.6817784309387207
10-08-1992,3.5,3.515625,88000,3.5625,3.546875,2.705615282058716
11-08-1992,3.546875,3.546875,2608000,3.5625,3.546875,2.705615282058716
12-08-1992,3.5625,3.5625,92800,3.59375,3.59375,2.7413721084594727
13-08-1992,3.609375,3.625,684800,3.734375,3.734375,2.8486435413360596
14-08-1992,3.734375,3.78125,1344000,3.84375,3.75,2.8605620861053467
17-08-1992,3.671875,3.71875,1498400,3.71875,3.6875,2.812887668609619
18-08-1992,3.578125,3.671875,823200,3.6875,3.59375,2.7413721084594727
19-08-1992,3.5,3.5,844800,3.6875,3.5625,2.7175345420837402
20-08-1992,3.5625,3.625,7611200,3.640625,3.59375,2.7413721084594727
21-08-1992,3.59375,3.609375,1631200,3.640625,3.59375,2.7413721084594727
24-08-1992,3.578125,3.578125,1412000,3.609375,3.578125,2.729454278945923
25-08-1992,3.578125,3.578125,1002400,3.71875,3.671875,2.80096697807312
26-08-1992,3.6875,3.6875,1988000,3.75,3.75,2.8605620861053467
27-08-1992,3.71875,3.734375,872800,3.796875,3.78125,2.884399652481079
28-08-1992,3.8125,3.8125,1732800,3.9375,3.9375,3.0035908222198486
31-08-1992,3.84375,3.90625,1392800,3.984375,3.875,2.95591402053833
01-09-1992,3.859375,3.875,740000,3.9375,3.90625,2.979752779006958
02-09-1992,3.875,3.9375,458400,3.953125,3.890625,2.967834949493408
03-09-1992,3.890625,3.90625,617600,3.921875,3.921875,2.9916718006134033
04-09-1992,3.921875,3.921875,190400,3.96875,3.953125,3.015509843826294
08-09-1992,3.953125,3.953125,1150400,4.09375,4.078125,3.1108622550964355
09-09-1992,4.0625,4.078125,660000,4.09375,4.09375,3.1227798461914062
10-09-1992,4.0625,4.09375,809600,4.109375,4.078125,3.1108622550964355
11-09-1992,4.0625,4.078125,549600,4.109375,4.109375,3.134700059890747
14-09-1992,4.109375,4.140625,684000,4.171875,4.125,3.1466190814971924
15-09-1992,4.109375,4.125,557600,4.140625,4.109375,3.134700059890747
16-09-1992,4.09375,4.109375,723200,4.171875,4.125,3.1466190814971924
17-09-1992,4.125,4.125,565600,4.28125,4.21875,3.218132972717285
18-09-1992,4.1875,4.1875,668000,4.3125,4.3125,3.289647102355957
21-09-1992,4.328125,4.328125,808000,4.34375,4.34375,3.3134849071502686
22-09-1992,4.296875,4.3125,662400,4.375,4.359375,3.325404167175293
23-09-1992,4.359375,4.375,898400,4.46875,4.375,3.33732271194458
24-09-1992,4.390625,4.390625,1256800,4.484375,4.46875,3.408837080001831
25-09-1992,4.203125,4.421875,1837600,4.4375,4.25,3.241971254348755
28-09-1992,4.109375,4.25,1749600,4.25,4.125,3.1466190814971924
29-09-1992,4.171875,4.203125,276800,4.234375,4.234375,3.230053186416626
30-09-1992,4.15625,4.21875,330400,4.234375,4.15625,3.170457601547241
01-10-1992,4.03125,4.140625,378400,4.140625,4.03125,3.075103282928467
02-10-1992,4.015625,4.046875,772800,4.078125,4.046875,3.0870249271392822
05-10-1992,3.953125,4.046875,312000,4.046875,3.96875,3.027428388595581
06-10-1992,3.90625,3.96875,885600,3.96875,3.9375,3.0035908222198486
07-10-1992,3.953125,3.953125,649600,4.015625,3.984375,3.0393478870391846
08-10-1992,3.96875,3.96875,266400,4.0625,4.0,3.056061029434204
09-10-1992,3.90625,3.96875,112000,4.03125,3.9375,3.008309841156006
12-10-1992,3.9375,3.9375,351200,3.953125,3.953125,3.020247220993042
13-10-1992,3.890625,3.9375,412000,3.953125,3.9375,3.008309841156006
14-10-1992,3.921875,3.9375,341600,3.953125,3.9375,3.008309841156006
15-10-1992,3.90625,3.9375,205600,3.9375,3.90625,2.9844343662261963
16-10-1992,3.921875,3.921875,1151200,4.078125,4.0625,3.1038100719451904
19-10-1992,4.0625,4.0625,756000,4.3125,4.28125,3.2709386348724365
20-10-1992,4.203125,4.265625,209600,4.265625,4.21875,3.223188877105713
21-10-1992,4.140625,4.203125,104800,4.203125,4.15625,3.175438404083252
22-10-1992,3.953125,4.140625,365600,4.140625,3.953125,3.020247220993042
23-10-1992,3.9375,3.96875,101600,3.96875,3.953125,3.020247220993042
26-10-1992,3.953125,3.953125,396800,4.015625,4.0,3.056061029434204
27-10-1992,3.8125,3.984375,318400,3.984375,3.859375,2.9486207962036133
28-10-1992,3.71875,3.859375,920800,3.859375,3.828125,2.9247448444366455
29-10-1992,3.828125,3.828125,348000,3.90625,3.84375,2.9366836547851562
30-10-1992,3.8125,3.875,143200,3.875,3.8125,2.9128072261810303
02-11-1992,3.828125,3.828125,156800,3.875,3.875,2.9605588912963867
03-11-1992,3.75,3.875,296800,3.875,3.75,2.8650569915771484
04-11-1992,3.65625,3.765625,464000,3.78125,3.65625,2.7934303283691406
05-11-1992,3.46875,3.625,1245600,3.625,3.484375,2.6621146202087402
06-11-1992,3.53125,3.53125,1823200,3.671875,3.65625,2.7934303283691406
09-11-1992,3.5,3.625,1322400,3.65625,3.546875,2.7098662853240967
10-11-1992,3.5625,3.5625,1669600,3.625,3.625,2.7695541381835938
11-11-1992,3.5625,3.625,551200,3.625,3.5625,2.72180438041687
12-11-1992,3.5625,3.625,1320800,3.640625,3.578125,2.7337419986724854
13-11-1992,3.59375,3.609375,324000,3.640625,3.625,2.7695541381835938
16-11-1992,3.609375,3.609375,257600,3.65625,3.65625,2.7934303283691406
17-11-1992,3.625,3.625,304000,3.640625,3.625,2.7695541381835938
18-11-1992,3.625,3.625,693600,3.640625,3.640625,2.7814931869506836
19-11-1992,3.46875,3.609375,821600,3.640625,3.5,2.674053192138672
20-11-1992,3.53125,3.53125,536800,3.59375,3.59375,2.745678424835205
23-11-1992,3.5625,3.5625,660000,3.671875,3.625,2.7695541381835938
24-11-1992,3.578125,3.609375,503200,3.609375,3.59375,2.745678424835205
25-11-1992,3.578125,3.578125,96000,3.609375,3.59375,2.745678424835205
27-11-1992,3.578125,3.59375,230400,3.625,3.625,2.7695541381835938
30-11-1992,3.53125,3.625,539200,3.625,3.546875,2.7098662853240967
01-12-1992,3.53125,3.546875,1116800,3.546875,3.53125,2.697927713394165
02-12-1992,3.53125,3.53125,721600,3.578125,3.578125,2.7337419986724854
03-12-1992,3.421875,3.5625,1191200,3.5625,3.4375,2.6263022422790527
04-12-1992,3.421875,3.4375,1249600,3.5,3.5,2.674053192138672
07-12-1992,3.484375,3.484375,167200,3.546875,3.5,2.674053192138672
08-12-1992,3.453125,3.5,580000,3.515625,3.484375,2.6621146202087402
09-12-1992,3.484375,3.5,374400,3.546875,3.53125,2.697927713394165
10-12-1992,3.484375,3.546875,1601600,3.609375,3.609375,2.7576165199279785
11-12-1992,3.65625,3.65625,151200,3.703125,3.671875,2.805367946624756
14-12-1992,3.609375,3.671875,920000,3.671875,3.65625,2.7934303283691406
15-12-1992,3.609375,3.640625,406400,3.640625,3.625,2.7695541381835938
16-12-1992,3.59375,3.609375,402400,3.625,3.59375,2.745678424835205
17-12-1992,3.5625,3.609375,52800,3.609375,3.5625,2.72180438041687
18-12-1992,3.578125,3.59375,295200,3.59375,3.59375,2.745678424835205
21-12-1992,3.546875,3.578125,488000,3.578125,3.546875,2.7098662853240967
22-12-1992,3.53125,3.5625,960800,3.5625,3.546875,2.7098662853240967
23-12-1992,3.515625,3.546875,1008000,3.546875,3.515625,2.685992479324341
24-12-1992,3.53125,3.546875,655200,3.59375,3.59375,2.745678424835205
28-12-1992,3.53125,3.578125,97600,3.578125,3.546875,2.7098662853240967
29-12-1992,3.53125,3.546875,596000,3.59375,3.5625,2.72180438041687
30-12-1992,3.546875,3.578125,639200,3.578125,3.546875,2.7098662853240967
31-12-1992,3.5625,3.5625,376000,3.6875,3.671875,2.805367946624756
04-01-1993,3.609375,3.6875,597600,3.71875,3.609375,2.7576165199279785
05-01-1993,3.578125,3.609375,715200,3.6875,3.6875,2.817304849624634
06-01-1993,3.59375,3.6875,928800,3.6875,3.609375,2.7576165199279785
07-01-1993,3.5625,3.609375,333600,3.609375,3.578125,2.7337419986724854
08-01-1993,3.46875,3.578125,1617600,3.578125,3.46875,2.650177240371704
11-01-1993,3.375,3.484375,410400,3.484375,3.390625,2.596102714538574
12-01-1993,3.359375,3.390625,269600,3.40625,3.40625,2.6080660820007324
13-01-1993,3.359375,3.40625,826400,3.484375,3.46875,2.6559207439422607
14-01-1993,3.34375,3.4375,619200,3.453125,3.34375,2.560211181640625
15-01-1993,3.359375,3.375,1232800,3.421875,3.390625,2.596102714538574
18-01-1993,3.359375,3.390625,460000,3.390625,3.375,2.5841383934020996
19-01-1993,3.359375,3.359375,1157600,3.484375,3.453125,2.643956184387207
20-01-1993,3.4375,3.453125,132800,3.484375,3.46875,2.6559207439422607
21-01-1993,3.4375,3.4375,272800,3.5,3.5,2.6798465251922607
22-01-1993,3.5,3.515625,540800,3.59375,3.59375,2.7516283988952637
25-01-1993,3.578125,3.578125,969600,3.703125,3.6875,2.82340931892395
26-01-1993,3.78125,3.8125,1224000,3.875,3.78125,2.8951921463012695
27-01-1993,3.703125,3.734375,636000,3.765625,3.75,2.8712656497955322
28-01-1993,3.75,3.765625,773600,3.90625,3.90625,2.990900754928589
29-01-1993,3.890625,3.90625,492800,4.0,3.96875,3.0387558937072754
01-02-1993,4.0,4.0,1876800,4.078125,4.0625,3.1105358600616455
02-02-1993,4.046875,4.046875,1044000,4.09375,4.09375,3.1344645023345947
03-02-1993,4.09375,4.09375,1448000,4.359375,4.296875,3.2899904251098633
04-02-1993,4.328125,4.328125,1330400,4.4375,4.4375,3.3976621627807617
05-02-1993,4.4375,4.4375,1606400,4.515625,4.5,3.4455173015594482
08-02-1993,4.46875,4.5,1975200,4.5,4.5,3.4455173015594482
09-02-1993,4.40625,4.5,756000,4.5,4.421875,3.3857009410858154
10-02-1993,4.359375,4.421875,800000,4.453125,4.375,3.3498082160949707
11-02-1993,4.359375,4.359375,971200,4.5,4.484375,3.433554172515869
12-02-1993,4.46875,4.484375,932000,4.484375,4.484375,3.433554172515869
16-02-1993,4.34375,4.46875,292800,4.46875,4.34375,3.325882911682129
17-02-1993,4.34375,4.359375,632800,4.40625,4.390625,3.3617727756500244
18-02-1993,4.421875,4.421875,604800,4.484375,4.4375,3.3976621627807617
19-02-1993,4.421875,4.4375,3408800,4.515625,4.5,3.4455173015594482
22-02-1993,4.5,4.5,1140000,4.609375,4.5625,3.493373155593872
23-02-1993,4.5,4.59375,664000,4.59375,4.546875,3.481410264968872
24-02-1993,4.46875,4.515625,499200,4.515625,4.484375,3.433554172515869
25-02-1993,4.359375,4.484375,259200,4.484375,4.359375,3.33784556388855
26-02-1993,4.359375,4.390625,128000,4.421875,4.40625,3.373734712600708
01-03-1993,4.421875,4.4375,1396000,4.53125,4.4375,3.3976621627807617
02-03-1993,4.4375,4.46875,332800,4.484375,4.453125,3.409627914428711
03-03-1993,4.46875,4.46875,4088800,4.84375,4.78125,3.660862445831299
04-03-1993,4.640625,4.75,913600,4.78125,4.734375,3.624972343444824
05-03-1993,4.6875,4.71875,335200,4.734375,4.6875,3.589080572128296
08-03-1993,4.703125,4.703125,472000,4.796875,4.78125,3.660862445831299
09-03-1993,4.75,4.796875,324000,4.796875,4.78125,3.660862445831299
10-03-1993,4.734375,4.78125,199200,4.8125,4.8125,3.6847915649414062
11-03-1993,4.796875,4.8125,213600,4.921875,4.890625,3.7446072101593018
12-03-1993,4.796875,4.921875,702400,4.921875,4.84375,3.7087180614471436
15-03-1993,4.84375,4.84375,209600,4.875,4.875,3.7326431274414062
16-03-1993,4.84375,4.859375,316800,4.875,4.859375,3.7206814289093018
17-03-1993,4.859375,4.875,136800,4.984375,4.984375,3.8163905143737793
18-03-1993,4.921875,4.96875,444000,5.0,5.0,3.828354597091675
19-03-1993,4.96875,4.984375,300800,5.0,4.96875,3.8044259548187256
22-03-1993,4.96875,4.984375,640800,5.0,4.984375,3.8163905143737793
23-03-1993,4.96875,5.015625,100800,5.015625,4.96875,3.8044259548187256
24-03-1993,4.96875,4.96875,574400,5.078125,4.96875,3.8044259548187256
25-03-1993,4.84375,4.90625,1020000,4.921875,4.84375,3.7087180614471436
26-03-1993,4.8125,4.84375,753600,4.921875,4.90625,3.756572961807251
29-03-1993,4.921875,4.921875,589600,4.984375,4.984375,3.8163905143737793
30-03-1993,5.0,5.0,663200,5.03125,5.03125,3.852280378341675
31-03-1993,4.96875,5.03125,558400,5.03125,5.015625,3.840315580368042
01-04-1993,4.984375,5.03125,537600,5.03125,5.0,3.828354597091675
02-04-1993,4.859375,4.953125,240800,4.953125,4.890625,3.7446072101593018
05-04-1993,4.875,4.90625,292800,4.90625,4.90625,3.756572961807251
06-04-1993,4.875,4.90625,604800,4.90625,4.875,3.7326431274414062
07-04-1993,4.8125,4.84375,860000,4.875,4.875,3.7326431274414062
08-04-1993,4.859375,4.859375,24000,4.875,4.875,3.7383944988250732
12-04-1993,4.859375,4.859375,325600,4.96875,4.96875,3.810288190841675
13-04-1993,4.84375,4.96875,1076800,5.03125,4.875,3.7383944988250732
14-04-1993,4.84375,4.890625,447200,4.890625,4.84375,3.7144322395324707
15-04-1993,4.8125,4.875,231200,4.921875,4.8125,3.69046950340271
16-04-1993,4.796875,4.828125,356800,4.84375,4.84375,3.7144322395324707
19-04-1993,4.828125,4.828125,173600,4.890625,4.875,3.7383944988250732
20-04-1993,4.90625,4.90625,1133600,5.0625,4.984375,3.8222715854644775
21-04-1993,4.875,5.015625,185600,5.015625,4.875,3.7383944988250732
22-04-1993,4.671875,4.84375,335200,4.84375,4.671875,3.582629680633545
23-04-1993,4.46875,4.671875,786400,4.671875,4.5,3.450826406478882
26-04-1993,4.515625,4.53125,367200,4.640625,4.625,3.5466835498809814
27-04-1993,4.625,4.65625,108000,4.65625,4.640625,3.558666229248047
28-04-1993,4.625,4.625,189600,4.640625,4.640625,3.558666229248047
29-04-1993,4.625,4.65625,383200,4.75,4.75,3.6425390243530273
30-04-1993,4.75,4.75,779200,4.96875,4.921875,3.7743422985076904
03-05-1993,4.953125,4.953125,249600,4.984375,4.953125,3.798307180404663
04-05-1993,4.90625,4.921875,1332800,4.953125,4.921875,3.7743422985076904
05-05-1993,4.921875,4.921875,65600,4.9375,4.921875,3.7743422985076904
06-05-1993,4.921875,4.921875,664800,5.0,4.9375,3.786323308944702
07-05-1993,4.90625,4.921875,186400,4.96875,4.921875,3.7743422985076904
10-05-1993,4.8125,4.9375,828000,4.9375,4.8125,3.69046950340271
11-05-1993,4.78125,4.78125,1120800,4.953125,4.9375,3.786323308944702
12-05-1993,4.90625,4.9375,852000,4.984375,4.953125,3.798307180404663
13-05-1993,4.90625,4.90625,702400,5.09375,5.0625,3.8821799755096436
14-05-1993,5.0625,5.0625,931200,5.265625,5.171875,3.9660561084747314
17-05-1993,5.15625,5.171875,390400,5.203125,5.203125,3.990018844604492
18-05-1993,5.203125,5.203125,340800,5.328125,5.296875,4.061911106109619
19-05-1993,5.1875,5.3125,412800,5.3125,5.234375,4.013984680175781
20-05-1993,5.21875,5.21875,216000,5.25,5.234375,4.013984680175781
21-05-1993,5.203125,5.234375,400000,5.234375,5.21875,4.0020012855529785
24-05-1993,5.21875,5.25,496000,5.25,5.234375,4.013984680175781
25-05-1993,5.171875,5.1875,400800,5.25,5.1875,3.9780356884002686
26-05-1993,5.15625,5.1875,188000,5.203125,5.203125,3.990018844604492
27-05-1993,5.203125,5.203125,511200,5.3125,5.3125,4.0738935470581055
28-05-1993,5.28125,5.296875,473600,5.3125,5.3125,4.0738935470581055
01-06-1993,5.328125,5.34375,619200,5.4375,5.40625,4.145785331726074
02-06-1993,5.40625,5.40625,522400,5.625,5.5625,4.265604019165039
03-06-1993,5.484375,5.5625,403200,5.5625,5.515625,4.2296576499938965
04-06-1993,5.484375,5.5,889600,5.515625,5.5,4.217676162719727
07-06-1993,5.484375,5.5,482400,5.515625,5.5,4.217676162719727
08-06-1993,5.421875,5.484375,277600,5.484375,5.4375,4.169750213623047
09-06-1993,5.40625,5.40625,262400,5.5,5.5,4.217676162719727
10-06-1993,5.4375,5.484375,779200,5.484375,5.4375,4.169750213623047
11-06-1993,5.234375,5.40625,606400,5.40625,5.234375,4.013984680175781
14-06-1993,5.125,5.21875,763200,5.21875,5.125,3.930107831954956
15-06-1993,5.125,5.125,288800,5.15625,5.125,3.930107831954956
16-06-1993,5.140625,5.140625,219200,5.203125,5.203125,3.990018844604492
17-06-1993,5.21875,5.21875,193600,5.328125,5.25,4.025965690612793
18-06-1993,5.265625,5.28125,224800,5.296875,5.265625,4.037945747375488
21-06-1993,5.28125,5.28125,292800,5.359375,5.34375,4.097855567932129
22-06-1993,5.265625,5.34375,1112000,5.34375,5.265625,4.037945747375488
23-06-1993,5.265625,5.265625,2466400,5.296875,5.296875,4.061911106109619
24-06-1993,5.0625,5.296875,637600,5.296875,5.125,3.930107831954956
25-06-1993,5.109375,5.125,36000,5.125,5.125,3.930107831954956
28-06-1993,5.125,5.125,204800,5.140625,5.140625,3.942089080810547
29-06-1993,4.984375,5.109375,648000,5.125,5.046875,3.870198965072632
30-06-1993,5.03125,5.0625,552000,5.09375,5.09375,3.9061434268951416
01-07-1993,5.015625,5.078125,376800,5.078125,5.046875,3.870198965072632
02-07-1993,5.015625,5.0625,100000,5.0625,5.046875,3.870198965072632
06-07-1993,5.0,5.046875,437600,5.09375,5.0,3.8342511653900146
07-07-1993,4.96875,4.96875,1369600,5.078125,5.078125,3.894163131713867
08-07-1993,5.078125,5.078125,955200,5.1875,5.1875,3.9780356884002686
09-07-1993,5.171875,5.171875,1352000,5.25,5.25,4.031796455383301
12-07-1993,5.28125,5.28125,900000,5.34375,5.3125,4.079794406890869
13-07-1993,5.28125,5.3125,100000,5.3125,5.28125,4.055792808532715
14-07-1993,5.28125,5.28125,538400,5.3125,5.28125,4.055792808532715
15-07-1993,5.21875,5.3125,338400,5.3125,5.25,4.031796455383301
16-07-1993,5.234375,5.25,147200,5.265625,5.25,4.031796455383301
19-07-1993,5.25,5.296875,417600,5.296875,5.28125,4.055792808532715
20-07-1993,5.25,5.25,713600,5.3125,5.3125,4.079794406890869
21-07-1993,5.3125,5.3125,395200,5.34375,5.3125,4.079794406890869
22-07-1993,5.28125,5.3125,314400,5.3125,5.296875,4.0677924156188965
23-07-1993,5.25,5.296875,341600,5.3125,5.3125,4.079794406890869
26-07-1993,5.296875,5.34375,196000,5.34375,5.296875,4.0677924156188965
27-07-1993,5.21875,5.265625,191200,5.28125,5.25,4.031796455383301
28-07-1993,5.234375,5.25,356800,5.296875,5.265625,4.043792724609375
29-07-1993,5.25,5.265625,98400,5.3125,5.296875,4.0677924156188965
30-07-1993,5.3125,5.3125,57600,5.328125,5.328125,4.091791152954102
02-08-1993,5.3125,5.328125,1029600,5.46875,5.46875,4.199783802032471
03-08-1993,5.484375,5.484375,356000,5.578125,5.5625,4.271783351898193
04-08-1993,5.546875,5.546875,400000,5.65625,5.625,4.319779396057129
05-08-1993,5.609375,5.609375,56000,5.640625,5.625,4.319779396057129
06-08-1993,5.578125,5.625,348800,5.625,5.59375,4.295782089233398
09-08-1993,5.609375,5.609375,344800,5.6875,5.6875,4.367778778076172
10-08-1993,5.6875,5.6875,632800,5.75,5.75,4.415773391723633
11-08-1993,5.78125,5.78125,784800,6.0,6.0,4.607764720916748
12-08-1993,5.984375,6.0,1103200,6.21875,6.015625,4.619764804840088
13-08-1993,5.9375,6.03125,226400,6.03125,5.9375,4.559767246246338
16-08-1993,5.9375,5.9375,448000,5.984375,5.984375,4.59576416015625
17-08-1993,6.0625,6.0625,640000,6.25,6.25,4.799754619598389
18-08-1993,6.234375,6.234375,805600,6.484375,6.421875,4.9317450523376465
19-08-1993,6.3125,6.4375,424000,6.46875,6.3125,4.847751617431641
20-08-1993,6.3125,6.3125,914400,6.453125,6.453125,4.955746650695801
23-08-1993,6.453125,6.46875,964800,6.703125,6.703125,5.147738456726074
24-08-1993,6.53125,6.703125,704000,6.703125,6.5625,5.039742946624756
25-08-1993,6.4375,6.5625,753600,6.578125,6.453125,4.955746650695801
26-08-1993,6.25,6.453125,817600,6.453125,6.296875,4.835752487182617
27-08-1993,6.03125,6.28125,627200,6.28125,6.125,4.703758716583252
30-08-1993,6.109375,6.125,529600,6.25,6.21875,4.775754928588867
31-08-1993,6.171875,6.234375,888000,6.328125,6.28125,4.823755741119385
01-09-1993,6.28125,6.28125,388800,6.390625,6.375,4.895749092102051
02-09-1993,6.28125,6.375,286400,6.375,6.28125,4.823755741119385
03-09-1993,6.28125,6.28125,135200,6.328125,6.296875,4.835752487182617
07-09-1993,6.125,6.296875,236800,6.328125,6.125,4.703758716583252
08-09-1993,5.953125,6.125,388800,6.125,5.953125,4.571768283843994
09-09-1993,5.921875,5.953125,533600,5.984375,5.96875,4.583764553070068
10-09-1993,5.953125,5.96875,121600,5.984375,5.984375,4.59576416015625
13-09-1993,5.921875,5.984375,472800,6.03125,5.921875,4.547767162322998
14-09-1993,5.90625,5.953125,633600,5.96875,5.9375,4.559767246246338
15-09-1993,5.921875,5.9375,994400,6.046875,6.0,4.607764720916748
16-09-1993,6.0,6.0,152800,6.03125,6.0,4.607764720916748
17-09-1993,5.890625,5.96875,127200,5.96875,5.9375,4.559767246246338
20-09-1993,5.9375,5.9375,248000,5.96875,5.96875,4.583764553070068
21-09-1993,5.96875,5.96875,218400,6.03125,6.015625,4.619764804840088
22-09-1993,5.96875,6.0,99200,6.03125,5.96875,4.583764553070068
23-09-1993,5.953125,5.984375,232800,5.984375,5.984375,4.59576416015625
24-09-1993,5.953125,5.96875,357600,6.0,5.96875,4.583764553070068
27-09-1993,5.953125,5.953125,441600,6.0,5.984375,4.59576416015625
28-09-1993,5.921875,5.984375,326400,5.984375,5.9375,4.559767246246338
29-09-1993,5.9375,5.9375,1200800,6.453125,6.453125,4.955746650695801
30-09-1993,6.453125,6.453125,755200,6.625,6.625,5.087742328643799
01-10-1993,6.59375,6.59375,599200,6.71875,6.71875,5.159734725952148
04-10-1993,6.640625,6.71875,248000,6.75,6.640625,5.099738597869873
05-10-1993,6.578125,6.65625,122400,6.65625,6.578125,5.05173921585083
06-10-1993,6.5,6.578125,114400,6.578125,6.53125,5.015743732452393
07-10-1993,6.4375,6.5,224000,6.5,6.484375,4.979744911193848
08-10-1993,6.40625,6.484375,245600,6.484375,6.421875,4.9374566078186035
11-10-1993,6.25,6.421875,288000,6.421875,6.25,4.805312633514404
12-10-1993,6.125,6.25,272800,6.25,6.125,4.709205627441406
13-10-1993,5.96875,6.078125,826400,6.109375,5.984375,4.6010870933532715
14-10-1993,6.0,6.09375,388000,6.125,6.03125,4.63712739944458
15-10-1993,5.828125,6.0,707200,6.0,5.875,4.516990661621094
18-10-1993,5.71875,5.875,719200,5.875,5.75,4.420886039733887
19-10-1993,5.484375,5.75,1467200,5.875,5.828125,4.480955600738525
20-10-1993,5.3125,5.796875,1626400,5.796875,5.3125,4.0845184326171875
21-10-1993,5.4375,5.4375,3216000,5.6875,5.5,4.228674411773682
22-10-1993,5.375,5.5,928800,5.5,5.375,4.132566928863525
25-10-1993,5.28125,5.375,901600,5.421875,5.28125,4.060489654541016
26-10-1993,5.0,5.28125,1536800,5.3125,5.03125,3.8682734966278076
27-10-1993,5.0625,5.0625,1416000,5.1875,5.1875,3.9884097576141357
28-10-1993,5.1875,5.1875,1215200,5.453125,5.453125,4.192634582519531
29-10-1993,5.328125,5.421875,412800,5.46875,5.34375,4.108541965484619
01-11-1993,5.34375,5.359375,379200,5.484375,5.453125,4.192634582519531
02-11-1993,5.453125,5.453125,553600,5.578125,5.5625,4.276728630065918
03-11-1993,5.578125,5.609375,540800,5.671875,5.625,4.324781894683838
04-11-1993,5.625,5.65625,345600,5.734375,5.625,4.324781894683838
05-11-1993,5.53125,5.625,112800,5.625,5.5625,4.276728630065918
08-11-1993,5.46875,5.5625,207200,5.5625,5.46875,4.204646587371826
09-11-1993,5.1875,5.46875,542400,5.46875,5.21875,4.012434005737305
10-11-1993,5.21875,5.25,191200,5.28125,5.265625,4.04847526550293
11-11-1993,5.203125,5.28125,564800,5.40625,5.21875,4.012434005737305
12-11-1993,5.0625,5.203125,1202400,5.203125,5.203125,4.000422954559326
15-11-1993,5.140625,5.203125,675200,5.234375,5.140625,3.9523706436157227
16-11-1993,4.875,4.96875,827200,4.984375,4.9375,3.7961971759796143
17-11-1993,4.9375,5.0,1617600,5.203125,5.203125,4.000422954559326
18-11-1993,5.15625,5.203125,463200,5.359375,5.296875,4.072502136230469
19-11-1993,5.21875,5.25,85600,5.265625,5.265625,4.04847526550293
22-11-1993,5.078125,5.25,173600,5.25,5.078125,3.9043145179748535
23-11-1993,5.078125,5.109375,697600,5.21875,5.09375,3.9163308143615723
24-11-1993,5.109375,5.109375,556800,5.15625,5.15625,3.9643826484680176
26-11-1993,5.03125,5.125,94400,5.125,5.03125,3.8682734966278076
29-11-1993,4.828125,4.96875,1270400,4.96875,4.828125,3.7121033668518066
30-11-1993,4.78125,4.84375,457600,4.859375,4.828125,3.7121033668518066
01-12-1993,4.828125,4.859375,316000,4.921875,4.859375,3.736128807067871
02-12-1993,4.84375,4.84375,429600,4.90625,4.859375,3.736128807067871
03-12-1993,4.875,4.875,142400,4.90625,4.875,3.7481420040130615
06-12-1993,4.84375,4.875,308800,4.90625,4.890625,3.7601559162139893
07-12-1993,4.859375,4.875,528800,4.953125,4.90625,3.7721710205078125
08-12-1993,4.84375,4.890625,89600,4.890625,4.859375,3.736128807067871
09-12-1993,4.71875,4.859375,69600,4.859375,4.78125,3.676062822341919
10-12-1993,4.796875,4.796875,271200,4.84375,4.828125,3.7121033668518066
13-12-1993,4.71875,4.859375,102400,4.859375,4.765625,3.6640498638153076
14-12-1993,4.734375,4.796875,620800,4.8125,4.8125,3.7000906467437744
15-12-1993,4.71875,4.765625,128000,4.765625,4.734375,3.6400249004364014
16-12-1993,4.75,4.75,565600,4.84375,4.78125,3.676062822341919
17-12-1993,4.734375,4.796875,200800,4.8125,4.75,3.652036190032959
20-12-1993,4.40625,4.71875,927200,4.71875,4.515625,3.471836805343628
21-12-1993,4.265625,4.546875,880000,4.546875,4.4375,3.411771774291992
22-12-1993,4.40625,4.453125,676000,4.75,4.734375,3.6400249004364014
23-12-1993,4.703125,4.703125,176000,4.796875,4.75,3.652036190032959
27-12-1993,4.6875,4.6875,1060000,4.890625,4.859375,3.736128807067871
28-12-1993,4.8125,4.890625,629600,4.921875,4.8125,3.7000906467437744
29-12-1993,4.828125,4.828125,648000,4.890625,4.859375,3.736128807067871
30-12-1993,4.828125,4.84375,270400,4.859375,4.859375,3.736128807067871
31-12-1993,4.828125,4.859375,112800,4.875,4.875,3.7481420040130615
03-01-1994,4.828125,4.875,332000,4.875,4.875,3.7481420040130615
04-01-1994,4.84375,4.84375,202400,4.890625,4.890625,3.7601559162139893
05-01-1994,4.96875,4.96875,800000,5.25,5.203125,4.000422954559326
06-01-1994,5.234375,5.234375,999200,5.484375,5.453125,4.192634582519531
07-01-1994,5.40625,5.46875,704800,5.46875,5.4375,4.180622577667236
10-01-1994,5.421875,5.421875,573600,5.640625,5.640625,4.342783451080322
11-01-1994,5.453125,5.59375,1028800,5.59375,5.5,4.234515190124512
12-01-1994,5.390625,5.5,296000,5.53125,5.40625,4.162336349487305
13-01-1994,5.3125,5.40625,10779200,5.421875,5.3125,4.090158939361572
14-01-1994,5.15625,5.28125,1295200,5.328125,5.15625,3.9698588848114014
17-01-1994,5.21875,5.25,1098400,5.3125,5.296875,4.078126907348633
18-01-1994,5.3125,5.3125,851200,5.4375,5.4375,4.186396598815918
19-01-1994,5.46875,5.46875,1249600,5.609375,5.515625,4.246546268463135
20-01-1994,5.359375,5.515625,487200,5.5625,5.359375,4.126248359680176
21-01-1994,5.34375,5.390625,354400,5.421875,5.375,4.13827657699585
24-01-1994,5.3125,5.390625,408800,5.40625,5.3125,4.090158939361572
25-01-1994,5.296875,5.3125,284000,5.328125,5.3125,4.090158939361572
26-01-1994,5.265625,5.3125,873600,5.40625,5.375,4.13827657699585
27-01-1994,5.375,5.375,1322400,5.5625,5.546875,4.270605087280273
28-01-1994,5.484375,5.5,303200,5.515625,5.5,4.234515190124512
31-01-1994,5.515625,5.53125,787200,5.671875,5.515625,4.246546268463135
01-02-1994,5.546875,5.546875,700800,5.625,5.609375,4.318724155426025
02-02-1994,5.578125,5.578125,999200,5.9375,5.765625,4.439022541046143
03-02-1994,5.734375,5.8125,155200,5.8125,5.75,4.426994800567627
04-02-1994,5.703125,5.78125,1171200,5.828125,5.71875,4.402935981750488
07-02-1994,5.609375,5.671875,363200,5.671875,5.625,4.330753803253174
08-02-1994,5.59375,5.625,355200,5.75,5.734375,4.414963245391846
09-02-1994,5.59375,5.734375,272800,5.734375,5.65625,4.354813098907471
10-02-1994,5.5,5.65625,944800,5.65625,5.5,4.234515190124512
11-02-1994,5.5,5.53125,212800,5.71875,5.6875,4.378874778747559
14-02-1994,5.40625,5.6875,335200,5.6875,5.5,4.234515190124512
15-02-1994,5.46875,5.46875,137600,5.53125,5.5,4.234515190124512
16-02-1994,5.375,5.46875,541600,5.484375,5.375,4.13827657699585
17-02-1994,5.34375,5.390625,538400,5.46875,5.34375,4.114218235015869
18-02-1994,5.328125,5.375,437600,5.390625,5.34375,4.114218235015869
22-02-1994,5.359375,5.375,83200,5.40625,5.375,4.13827657699585
23-02-1994,5.34375,5.34375,152000,5.4375,5.421875,4.174365043640137
24-02-1994,5.375,5.421875,108800,5.4375,5.4375,4.186396598815918
25-02-1994,5.46875,5.5,848800,5.5625,5.46875,4.210453033447266
28-02-1994,5.375,5.46875,57600,5.46875,5.375,4.13827657699585
01-03-1994,5.34375,5.40625,180000,5.40625,5.375,4.13827657699585
02-03-1994,5.28125,5.34375,310400,5.34375,5.3125,4.090158939361572
03-03-1994,5.296875,5.328125,92800,5.34375,5.3125,4.090158939361572
04-03-1994,5.296875,5.296875,196800,5.40625,5.390625,4.150305271148682
07-03-1994,5.34375,5.40625,268800,5.40625,5.34375,4.114218235015869
08-03-1994,5.234375,5.3125,516800,5.328125,5.234375,4.030007839202881
09-03-1994,4.96875,5.203125,609600,5.203125,5.03125,3.8736186027526855
10-03-1994,4.921875,5.015625,894400,5.046875,4.9375,3.8014414310455322
11-03-1994,4.921875,4.953125,410400,5.03125,5.015625,3.8615880012512207
14-03-1994,5.015625,5.015625,308800,5.1875,5.171875,3.9818878173828125
15-03-1994,5.21875,5.21875,446400,5.328125,5.28125,4.066096782684326
16-03-1994,5.25,5.265625,458400,5.296875,5.28125,4.066096782684326
17-03-1994,5.265625,5.265625,423200,5.515625,5.484375,4.222484588623047
18-03-1994,5.5,5.53125,879200,5.6875,5.6875,4.378874778747559
21-03-1994,5.671875,5.71875,813600,5.734375,5.71875,4.402935981750488
22-03-1994,5.6875,5.6875,1078400,5.8125,5.796875,4.463081359863281
23-03-1994,5.625,5.6875,722400,5.6875,5.671875,4.366842746734619
24-03-1994,5.5625,5.59375,674400,5.65625,5.625,4.330753803253174
25-03-1994,5.609375,5.609375,510400,5.671875,5.625,4.330753803253174
28-03-1994,5.4375,5.609375,1590400,5.609375,5.4375,4.186396598815918
29-03-1994,5.25,5.421875,617600,5.421875,5.25,4.042036056518555
30-03-1994,5.109375,5.234375,567200,5.328125,5.3125,4.090158939361572
31-03-1994,5.265625,5.3125,148800,5.34375,5.34375,4.114218235015869
04-04-1994,5.25,5.3125,445600,5.3125,5.265625,4.0540666580200195
05-04-1994,5.234375,5.28125,940000,5.328125,5.25,4.042036056518555
06-04-1994,5.21875,5.3125,240000,5.375,5.375,4.13827657699585
07-04-1994,5.34375,5.375,574400,5.4375,5.34375,4.114218235015869
08-04-1994,5.3125,5.328125,169600,5.34375,5.34375,4.114218235015869
11-04-1994,5.265625,5.3125,698400,5.3125,5.296875,4.083858966827393
12-04-1994,5.3125,5.3125,1101600,5.40625,5.375,4.144091606140137
13-04-1994,5.359375,5.375,604000,5.4375,5.4375,4.1922807693481445
14-04-1994,5.359375,5.390625,1280800,5.53125,5.53125,4.264558792114258
15-04-1994,5.46875,5.53125,826400,5.875,5.875,4.5295891761779785
18-04-1994,5.6875,5.8125,1331200,5.8125,5.796875,4.469357013702393
19-04-1994,5.734375,5.78125,704000,5.8125,5.734375,4.421168327331543
20-04-1994,5.703125,5.71875,727200,5.71875,5.71875,4.409121036529541
21-04-1994,5.703125,5.703125,480000,5.765625,5.75,4.433215618133545
22-04-1994,5.71875,5.734375,332000,5.796875,5.765625,4.445262908935547
25-04-1994,5.734375,5.765625,498400,5.9375,5.9375,4.577777862548828
26-04-1994,5.9375,5.9375,1096000,5.96875,5.96875,4.60187292098999
28-04-1994,5.9375,5.953125,856800,6.015625,5.953125,4.5898237228393555
29-04-1994,5.890625,5.9375,535200,5.9375,5.9375,4.577777862548828
02-05-1994,5.890625,5.90625,652000,5.953125,5.953125,4.5898237228393555
03-05-1994,5.859375,5.9375,560800,5.9375,5.875,4.5295891761779785
04-05-1994,5.875,5.875,358400,5.9375,5.9375,4.577777862548828
05-05-1994,5.921875,5.96875,66400,5.96875,5.921875,4.565731048583984
06-05-1994,5.921875,5.921875,343200,6.125,6.09375,4.698245525360107
09-05-1994,6.03125,6.109375,453600,6.109375,6.078125,4.686198711395264
10-05-1994,6.09375,6.140625,632800,6.140625,6.09375,4.698245525360107
11-05-1994,6.03125,6.09375,187200,6.109375,6.03125,4.650058269500732
12-05-1994,6.03125,6.046875,806400,6.15625,6.140625,4.734385013580322
13-05-1994,6.109375,6.109375,257600,6.125,6.125,4.722337245941162
16-05-1994,6.109375,6.140625,293600,6.140625,6.109375,4.710292816162109
17-05-1994,5.890625,6.09375,1044000,6.09375,5.953125,4.5898237228393555
18-05-1994,5.90625,5.96875,1417600,5.984375,5.96875,4.60187292098999
19-05-1994,5.890625,5.984375,205600,5.984375,5.890625,4.541635513305664
20-05-1994,5.8125,5.90625,309600,5.90625,5.828125,4.493450164794922
23-05-1994,5.765625,5.796875,208800,5.8125,5.765625,4.445262908935547
24-05-1994,5.703125,5.75,287200,5.75,5.703125,4.397075653076172
25-05-1994,5.65625,5.71875,179200,5.71875,5.65625,4.360935211181641
26-05-1994,5.515625,5.59375,840800,5.625,5.546875,4.276609897613525
27-05-1994,5.53125,5.5625,70400,5.59375,5.578125,4.300698757171631
31-05-1994,5.5,5.546875,752800,5.578125,5.5,4.240464687347412
01-06-1994,5.5,5.5,480800,5.546875,5.515625,4.252517223358154
02-06-1994,5.46875,5.5,600000,5.53125,5.46875,4.216373443603516
03-06-1994,5.34375,5.453125,136800,5.453125,5.421875,4.180233478546143
06-06-1994,5.453125,5.5,132800,5.5,5.46875,4.216373443603516
07-06-1994,5.46875,5.46875,863200,5.578125,5.5625,4.288655757904053
08-06-1994,5.4375,5.5625,276800,5.5625,5.46875,4.216373443603516
09-06-1994,5.375,5.4375,304800,5.4375,5.375,4.144091606140137
10-06-1994,5.375,5.375,165600,5.578125,5.578125,4.300698757171631
13-06-1994,5.578125,5.578125,736800,5.703125,5.6875,4.385029315948486
14-06-1994,5.703125,5.703125,476000,5.75,5.75,4.433215618133545
15-06-1994,5.71875,5.75,292000,5.78125,5.734375,4.421168327331543
16-06-1994,5.71875,5.71875,132000,5.78125,5.78125,4.457308292388916
17-06-1994,5.75,5.75,384000,5.90625,5.90625,4.553681373596191
20-06-1994,5.75,5.9375,174800,5.9375,5.84375,4.505496978759766
21-06-1994,5.78125,5.78125,166400,5.90625,5.90625,4.553681373596191
22-06-1994,5.875,5.96875,52800,5.96875,5.90625,4.553681373596191
23-06-1994,5.75,5.96875,197200,5.96875,5.75,4.433215618133545
24-06-1994,5.59375,5.75,143200,5.75,5.71875,4.409121036529541
27-06-1994,5.625,5.6875,136800,5.75,5.71875,4.409121036529541
28-06-1994,5.59375,5.65625,190800,5.71875,5.71875,4.409121036529541
29-06-1994,5.65625,5.71875,94800,5.75,5.75,4.433215618133545
30-06-1994,5.59375,5.6875,440400,5.75,5.75,4.433215618133545
01-07-1994,5.625,5.75,150400,5.75,5.65625,4.360935211181641
05-07-1994,5.5,5.6875,72400,5.6875,5.5,4.240464687347412
06-07-1994,5.46875,5.5,182800,5.6875,5.6875,4.385029315948486
07-07-1994,5.59375,5.71875,36000,5.71875,5.59375,4.312748432159424
08-07-1994,5.5,5.5625,24000,5.59375,5.5,4.240464687347412
11-07-1994,5.5,5.53125,51600,5.5625,5.5625,4.2945098876953125
12-07-1994,5.5,5.5625,98800,5.59375,5.5625,4.2945098876953125
13-07-1994,5.40625,5.59375,277200,5.65625,5.5,4.246254920959473
14-07-1994,5.4375,5.53125,72800,5.53125,5.4375,4.198005199432373
15-07-1994,5.34375,5.40625,68800,5.40625,5.375,4.149750232696533
18-07-1994,5.3125,5.4375,261600,5.46875,5.46875,4.222129821777344
19-07-1994,5.375,5.4375,143200,5.4375,5.375,4.149750232696533
20-07-1994,5.3125,5.40625,31600,5.40625,5.3125,4.101500988006592
21-07-1994,5.1875,5.1875,230800,5.34375,5.34375,4.125624656677246
22-07-1994,5.1875,5.3125,37600,5.3125,5.21875,4.029118537902832
25-07-1994,5.03125,5.25,187200,5.25,5.03125,3.884361982345581
26-07-1994,4.9375,5.0625,230000,5.0625,4.96875,3.8361079692840576
27-07-1994,4.90625,5.0,551200,5.03125,4.9375,3.8119823932647705
28-07-1994,4.9375,4.9375,342800,5.0,5.0,3.860233783721924
29-07-1994,4.96875,5.0,209600,5.0,4.96875,3.8361079692840576
01-08-1994,4.9375,4.9375,620000,5.0,5.0,3.860233783721924
02-08-1994,4.9375,4.96875,216400,5.0,5.0,3.860233783721924
03-08-1994,4.90625,4.96875,430800,5.03125,5.0,3.860233783721924
04-08-1994,4.9375,4.96875,156400,5.0625,5.0,3.860233783721924
05-08-1994,4.78125,4.96875,233200,5.0,4.78125,3.691347122192383
08-08-1994,4.8125,4.84375,731600,4.90625,4.84375,3.739603042602539
09-08-1994,4.78125,4.8125,1479200,5.0,5.0,3.860233783721924
10-08-1994,5.03125,5.0625,600000,5.125,5.0625,3.908486843109131
11-08-1994,4.96875,5.03125,326800,5.09375,4.96875,3.8361079692840576
12-08-1994,4.9375,4.96875,558400,5.03125,5.0,3.860233783721924
15-08-1994,4.96875,5.0,71600,5.0625,4.96875,3.8361079692840576
16-08-1994,4.9375,5.0,300800,5.0,4.9375,3.8119823932647705
17-08-1994,4.90625,4.9375,148800,5.0,4.96875,3.8361079692840576
18-08-1994,4.90625,4.96875,228400,4.96875,4.9375,3.8119823932647705
19-08-1994,4.90625,4.9375,330400,4.953125,4.90625,3.787856101989746
22-08-1994,4.8125,4.9375,137200,4.9375,4.8125,3.715477228164673
23-08-1994,4.78125,4.875,459200,4.90625,4.84375,3.739603042602539
24-08-1994,4.875,4.875,956000,5.03125,4.9375,3.8119823932647705
25-08-1994,4.75,4.96875,773200,4.96875,4.78125,3.691347122192383
26-08-1994,4.65625,4.8125,1071600,4.875,4.8125,3.715477228164673
29-08-1994,4.625,4.875,1677600,4.875,4.71875,3.643096923828125
30-08-1994,4.6875,4.71875,976800,4.8125,4.8125,3.715477228164673
31-08-1994,4.75,4.8125,1103600,4.90625,4.8125,3.715477228164673
01-09-1994,4.78125,4.78125,967600,4.875,4.84375,3.739603042602539
02-09-1994,4.84375,4.90625,250400,4.9375,4.9375,3.8119823932647705
06-09-1994,4.875,4.90625,397200,5.03125,5.03125,3.884361982345581
07-09-1994,5.0625,5.0625,1347600,5.25,5.1875,4.004994869232178
08-09-1994,5.125,5.125,1925200,5.4375,5.4375,4.198005199432373
09-09-1994,5.125,5.375,1384800,5.375,5.125,3.956740140914917
12-09-1994,5.125,5.1875,572800,5.21875,5.125,3.956740140914917
13-09-1994,5.125,5.15625,136400,5.1875,5.15625,3.9808695316314697
14-09-1994,5.125,5.125,378800,5.25,5.25,4.053245544433594
15-09-1994,5.21875,5.25,1040800,5.3125,5.25,4.053245544433594
16-09-1994,5.25,5.28125,429600,5.375,5.375,4.149750232696533
19-09-1994,5.25,5.375,374400,5.375,5.25,4.053245544433594
20-09-1994,5.0,5.1875,248400,5.1875,5.125,3.956740140914917
21-09-1994,4.9375,5.125,303200,5.125,5.0,3.860233783721924
22-09-1994,5.0,5.0625,68000,5.0625,5.0,3.860233783721924
23-09-1994,5.0625,5.0625,456000,5.21875,5.1875,4.004994869232178
26-09-1994,5.15625,5.15625,168800,5.25,5.25,4.053245544433594
27-09-1994,5.15625,5.21875,271200,5.21875,5.1875,4.004994869232178
28-09-1994,5.15625,5.1875,45600,5.21875,5.15625,3.9808695316314697
29-09-1994,5.125,5.1875,135200,5.1875,5.15625,3.9808695316314697
30-09-1994,5.0625,5.1875,63600,5.1875,5.09375,3.9326131343841553
03-10-1994,5.0625,5.09375,100000,5.125,5.0625,3.908486843109131
04-10-1994,4.96875,5.09375,256800,5.09375,4.96875,3.8361079692840576
05-10-1994,4.96875,4.96875,100400,5.03125,5.03125,3.884361982345581
06-10-1994,5.03125,5.0625,187200,5.125,5.0625,3.908486843109131
07-10-1994,5.09375,5.09375,220000,5.3125,5.28125,4.083420276641846
10-10-1994,5.28125,5.28125,344000,5.375,5.3125,4.107586860656738
11-10-1994,5.3125,5.3125,328800,5.375,5.3125,4.107586860656738
12-10-1994,5.15625,5.25,155600,5.25,5.15625,3.9867756366729736
13-10-1994,5.1875,5.21875,285600,5.28125,5.25,4.05925989151001
14-10-1994,5.1875,5.25,151200,5.25,5.25,4.05925989151001
17-10-1994,5.25,5.3125,88000,5.3125,5.25,4.05925989151001
18-10-1994,5.25,5.25,153200,5.375,5.375,4.155907154083252
19-10-1994,5.34375,5.34375,236000,5.4375,5.34375,4.131745338439941
20-10-1994,5.21875,5.3125,174000,5.34375,5.25,4.05925989151001
21-10-1994,5.1875,5.1875,66800,5.25,5.21875,4.035096168518066
24-10-1994,5.1875,5.25,72800,5.34375,5.3125,4.107586860656738
25-10-1994,5.1875,5.3125,243200,5.34375,5.25,4.05925989151001
26-10-1994,5.21875,5.25,512800,5.40625,5.40625,4.180068492889404
27-10-1994,5.375,5.375,1548800,5.625,5.53125,4.27672004699707
28-10-1994,5.46875,5.5,638000,5.6875,5.65625,4.3733696937561035
31-10-1994,5.5,5.625,102000,5.625,5.53125,4.27672004699707
01-11-1994,5.46875,5.53125,71200,5.5625,5.5625,4.300881862640381
02-11-1994,5.4375,5.53125,349600,5.53125,5.46875,4.228394031524658
03-11-1994,5.46875,5.5,54000,5.5625,5.53125,4.27672004699707
04-11-1994,5.46875,5.46875,237600,5.53125,5.46875,4.228394031524658
07-11-1994,5.4375,5.5,145600,5.5,5.4375,4.204233646392822
08-11-1994,5.375,5.40625,126800,5.4375,5.40625,4.180068492889404
09-11-1994,5.4375,5.4375,328400,5.46875,5.4375,4.204233646392822
10-11-1994,5.4375,5.4375,60800,5.46875,5.4375,4.204233646392822
11-11-1994,5.34375,5.4375,80800,5.46875,5.34375,4.131745338439941
14-11-1994,5.21875,5.3125,125600,5.3125,5.25,4.05925989151001
15-11-1994,5.21875,5.25,166400,5.28125,5.28125,4.083420276641846
16-11-1994,5.15625,5.21875,154800,5.25,5.15625,3.9867756366729736
17-11-1994,4.90625,5.09375,990400,5.09375,4.96875,3.84179949760437
18-11-1994,4.625,4.90625,1564800,4.90625,4.78125,3.696823835372925
21-11-1994,4.71875,4.8125,789600,4.84375,4.75,3.6726644039154053
22-11-1994,4.625,4.6875,559600,4.71875,4.6875,3.6243391036987305
23-11-1994,4.5,4.71875,952400,4.71875,4.59375,3.5518510341644287
25-11-1994,4.53125,4.5625,45600,4.59375,4.53125,3.503528118133545
28-11-1994,4.46875,4.59375,1295600,4.59375,4.53125,3.503528118133545
29-11-1994,4.46875,4.53125,1277200,4.625,4.59375,3.5518510341644287
30-11-1994,4.53125,4.625,410400,4.625,4.53125,3.503528118133545
01-12-1994,4.5,4.53125,507600,4.65625,4.625,3.5760130882263184
02-12-1994,4.625,4.625,588000,4.6875,4.625,3.5760130882263184
05-12-1994,4.375,4.59375,1013600,4.65625,4.375,3.382716417312622
06-12-1994,4.375,4.375,664400,4.4375,4.375,3.382716417312622
07-12-1994,4.34375,4.375,218400,4.5625,4.5625,3.5276899337768555
08-12-1994,4.53125,4.53125,552800,4.8125,4.6875,3.6243391036987305
09-12-1994,4.5625,4.625,588400,4.625,4.59375,3.5518510341644287
12-12-1994,4.625,4.625,519200,4.6875,4.65625,3.600175142288208
13-12-1994,4.65625,4.65625,408000,4.78125,4.75,3.6726644039154053
14-12-1994,4.78125,4.78125,529200,4.96875,4.9375,3.8176381587982178
15-12-1994,4.8125,4.96875,116000,4.96875,4.84375,3.7451515197753906
16-12-1994,4.8125,4.84375,312800,4.875,4.84375,3.7451515197753906
19-12-1994,4.75,4.84375,426800,4.84375,4.8125,3.720989942550659
20-12-1994,4.625,4.75,305200,4.8125,4.65625,3.600175142288208
21-12-1994,4.59375,4.6875,634400,4.6875,4.625,3.5760130882263184
22-12-1994,4.53125,4.65625,284000,4.65625,4.53125,3.503528118133545
23-12-1994,4.53125,4.5625,29600,4.59375,4.5625,3.5276899337768555
27-12-1994,4.4375,4.59375,209600,4.59375,4.5,3.479365110397339
28-12-1994,4.5,4.5,228800,4.59375,4.59375,3.5518510341644287
29-12-1994,4.65625,4.65625,221200,4.8125,4.71875,3.6485021114349365
30-12-1994,4.6875,4.71875,150400,4.78125,4.6875,3.6243391036987305
03-01-1995,4.65625,4.75,129600,4.78125,4.75,3.6726644039154053
04-01-1995,4.6875,4.75,68400,4.8125,4.71875,3.6485021114349365
05-01-1995,4.59375,4.65625,260000,4.6875,4.65625,3.600175142288208
06-01-1995,4.5,4.6875,404800,4.6875,4.5625,3.5276899337768555
09-01-1995,4.46875,4.53125,613600,4.5625,4.46875,3.460893392562866
10-01-1995,4.3125,4.4375,289600,4.4375,4.3125,3.339881658554077
11-01-1995,4.3125,4.3125,124800,4.40625,4.40625,3.4124884605407715
12-01-1995,4.3125,4.375,374400,4.4375,4.3125,3.339881658554077
13-01-1995,4.28125,4.3125,66800,4.40625,4.375,3.3882853984832764
16-01-1995,4.28125,4.3125,480800,4.328125,4.3125,3.339881658554077
17-01-1995,4.3125,4.3125,437600,4.4375,4.40625,3.4124884605407715
18-01-1995,4.40625,4.40625,606000,4.59375,4.5625,3.533498525619507
19-01-1995,4.5,4.5625,248000,4.5625,4.5,3.4850947856903076
20-01-1995,4.5,4.53125,76400,4.53125,4.53125,3.5092945098876953
23-01-1995,4.375,4.46875,128800,4.5,4.375,3.3882853984832764
24-01-1995,4.375,4.375,345600,4.5625,4.53125,3.5092945098876953
25-01-1995,4.46875,4.53125,129600,4.53125,4.5,3.4850947856903076
26-01-1995,4.5,4.5,145200,4.625,4.625,3.5819027423858643
27-01-1995,4.5,4.5625,512000,4.59375,4.53125,3.5092945098876953
30-01-1995,4.4375,4.53125,193200,4.53125,4.46875,3.460893392562866
31-01-1995,4.4375,4.4375,186400,4.53125,4.4375,3.4366891384124756
01-02-1995,4.4375,4.4375,46000,4.5,4.46875,3.460893392562866
02-02-1995,4.4375,4.46875,41600,4.5,4.46875,3.460893392562866
03-02-1995,4.4375,4.5,243600,4.53125,4.5,3.4850947856903076
06-02-1995,4.5625,4.625,651200,4.8125,4.75,3.6787102222442627
07-02-1995,4.6875,4.8125,437200,4.8125,4.6875,3.630305767059326
08-02-1995,4.71875,4.71875,549600,4.8125,4.75,3.6787102222442627
09-02-1995,4.6875,4.78125,278800,4.78125,4.6875,3.630305767059326
10-02-1995,4.6875,4.71875,243600,4.78125,4.78125,3.702913522720337
13-02-1995,4.8125,4.8125,264800,4.90625,4.84375,3.751317262649536
14-02-1995,4.75,4.84375,137600,4.84375,4.84375,3.751317262649536
15-02-1995,4.8125,4.84375,277200,4.96875,4.9375,3.823922634124756
16-02-1995,4.9375,4.9375,477600,5.03125,5.0,3.872325897216797
17-02-1995,5.0,5.0,261200,5.125,5.125,3.9691367149353027
21-02-1995,5.09375,5.125,92400,5.125,5.125,3.9691367149353027
22-02-1995,5.0625,5.09375,214400,5.125,5.09375,3.9449338912963867
23-02-1995,5.0625,5.125,348800,5.15625,5.15625,3.9933395385742188
24-02-1995,5.09375,5.15625,281200,5.15625,5.125,3.9691367149353027
27-02-1995,5.09375,5.125,381600,5.15625,5.15625,3.9933395385742188
28-02-1995,5.15625,5.1875,322400,5.21875,5.21875,4.0417399406433105
01-03-1995,5.15625,5.1875,70800,5.1875,5.15625,3.9933395385742188
02-03-1995,5.15625,5.15625,218800,5.25,5.25,4.065942287445068
03-03-1995,5.21875,5.25,259600,5.28125,5.25,4.065942287445068
06-03-1995,5.15625,5.25,236400,5.25,5.21875,4.0417399406433105
07-03-1995,5.125,5.25,405200,5.25,5.125,3.9691367149353027
08-03-1995,5.125,5.15625,442800,5.28125,5.21875,4.0417399406433105
09-03-1995,5.1875,5.25,179600,5.28125,5.28125,4.090143203735352
10-03-1995,5.15625,5.25,170400,5.25,5.15625,3.9933395385742188
13-03-1995,5.15625,5.1875,100800,5.21875,5.1875,4.017541408538818
14-03-1995,5.1875,5.1875,101600,5.25,5.25,4.065942287445068
15-03-1995,5.25,5.25,317200,5.34375,5.3125,4.1143479347229
16-03-1995,5.28125,5.28125,635600,5.5,5.4375,4.211154460906982
17-03-1995,5.3125,5.40625,492800,5.5,5.4375,4.211154460906982
20-03-1995,5.28125,5.40625,426800,5.5,5.34375,4.138551712036133
21-03-1995,5.25,5.3125,159600,5.3125,5.25,4.065942287445068
22-03-1995,5.28125,5.3125,349200,5.375,5.3125,4.1143479347229
23-03-1995,5.3125,5.34375,279600,5.4375,5.40625,4.186951637268066
24-03-1995,5.28125,5.40625,696000,5.40625,5.3125,4.1143479347229
27-03-1995,5.3125,5.34375,314400,5.5,5.5,4.259558200836182
28-03-1995,5.5,5.5,268800,5.5625,5.5625,4.307963848114014
29-03-1995,5.5625,5.5625,458000,5.6875,5.625,4.356369495391846
30-03-1995,5.65625,5.65625,414400,5.875,5.875,4.549983978271484
31-03-1995,5.90625,5.90625,1336800,6.21875,6.15625,4.76780366897583
03-04-1995,5.96875,6.15625,1253600,6.15625,5.96875,4.622590065002441
04-04-1995,5.84375,5.96875,666000,5.96875,5.875,4.549983978271484
05-04-1995,5.84375,5.875,1044800,5.96875,5.90625,4.574186325073242
06-04-1995,5.71875,5.875,704000,5.875,5.71875,4.428973197937012
07-04-1995,5.625,5.6875,227600,5.75,5.625,4.362090110778809
10-04-1995,5.59375,5.59375,525600,5.75,5.75,4.482935905456543
11-04-1995,5.6875,5.78125,668400,5.78125,5.75,4.482935905456543
12-04-1995,5.71875,5.75,110400,5.78125,5.78125,4.507296562194824
13-04-1995,5.75,5.8125,191600,5.875,5.75,4.482935905456543
17-04-1995,5.75,5.78125,133200,5.8125,5.75,4.482935905456543
18-04-1995,5.5625,5.75,805200,5.75,5.5625,4.3367509841918945
19-04-1995,5.53125,5.59375,182400,5.625,5.625,4.385476112365723
20-04-1995,5.625,5.625,356000,5.78125,5.78125,4.507296562194824
21-04-1995,5.8125,5.8125,1894000,6.1875,6.09375,4.750936508178711
24-04-1995,5.9375,6.125,940800,6.1875,5.9375,4.629117488861084
25-04-1995,5.84375,5.875,103200,5.90625,5.84375,4.556024074554443
26-04-1995,5.71875,5.875,144000,5.875,5.78125,4.507296562194824
27-04-1995,5.65625,5.78125,390800,5.78125,5.65625,4.409841060638428
28-04-1995,5.6875,5.71875,266400,5.71875,5.71875,4.4585700035095215
01-05-1995,5.71875,5.75,529200,5.78125,5.75,4.482935905456543
02-05-1995,5.6875,5.75,406400,5.75,5.75,4.482935905456543
03-05-1995,5.75,5.75,199600,5.8125,5.75,4.482935905456543
04-05-1995,5.6875,5.75,215200,5.75,5.71875,4.4585700035095215
05-05-1995,5.65625,5.6875,289200,5.75,5.65625,4.409841060638428
08-05-1995,5.625,5.65625,224000,5.6875,5.65625,4.409841060638428
09-05-1995,5.625,5.65625,509200,5.8125,5.8125,4.531660079956055
10-05-1995,5.78125,5.78125,706400,5.9375,5.9375,4.629117488861084
11-05-1995,5.78125,5.90625,222000,5.90625,5.8125,4.531660079956055
12-05-1995,5.75,5.8125,38800,5.8125,5.78125,4.507296562194824
15-05-1995,5.78125,5.8125,279600,5.875,5.875,4.580387592315674
16-05-1995,5.84375,5.90625,43200,5.9375,5.84375,4.556024074554443
17-05-1995,5.78125,5.84375,295600,5.84375,5.8125,4.531660079956055
18-05-1995,5.65625,5.8125,107600,5.8125,5.71875,4.4585700035095215
19-05-1995,5.71875,5.71875,130800,5.75,5.75,4.482935905456543
22-05-1995,5.6875,5.75,64000,5.75,5.6875,4.434206008911133
23-05-1995,5.71875,5.71875,340800,5.90625,5.875,4.580387592315674
24-05-1995,5.84375,5.875,449200,6.09375,6.09375,4.750936508178711
25-05-1995,6.0,6.03125,798400,6.125,6.0625,4.726571083068848
26-05-1995,5.9375,6.0625,177600,6.0625,5.96875,4.653477668762207
30-05-1995,5.9375,5.9375,303600,6.03125,6.03125,4.702208042144775
31-05-1995,6.0,6.0625,254800,6.0625,6.0625,4.726571083068848
01-06-1995,6.03125,6.0625,26000,6.09375,6.03125,4.702208042144775
02-06-1995,5.9375,6.0625,201600,6.09375,5.96875,4.653477668762207
05-06-1995,5.96875,6.0,137600,6.0,6.0,4.6778435707092285
06-06-1995,5.875,6.0,53200,6.0,5.90625,4.6047515869140625
07-06-1995,5.8125,5.9375,307600,5.9375,5.8125,4.531660079956055
08-06-1995,5.75,5.8125,242000,5.8125,5.78125,4.507296562194824
09-06-1995,5.75,5.78125,652000,5.8125,5.78125,4.507296562194824
12-06-1995,5.71875,5.78125,188000,5.78125,5.75,4.482935905456543
13-06-1995,5.6875,5.6875,119200,5.71875,5.71875,4.4585700035095215
14-06-1995,5.71875,5.78125,300400,5.78125,5.78125,4.507296562194824
15-06-1995,5.71875,5.75,186800,5.8125,5.8125,4.531660079956055
16-06-1995,5.6875,5.8125,190000,5.8125,5.6875,4.434206008911133
19-06-1995,5.59375,5.65625,399600,5.71875,5.6875,4.434206008911133
20-06-1995,5.34375,5.71875,788000,5.71875,5.34375,4.166205406188965
21-06-1995,5.1875,5.34375,494400,5.34375,5.21875,4.068747043609619
22-06-1995,5.0625,5.21875,762800,5.21875,5.15625,4.020018577575684
23-06-1995,5.1875,5.1875,2558400,5.34375,5.3125,4.141839027404785
26-06-1995,5.25,5.28125,352400,5.375,5.34375,4.166205406188965
27-06-1995,5.3125,5.3125,496800,5.4375,5.40625,4.214931488037109
28-06-1995,5.21875,5.375,1011200,5.375,5.25,4.093111515045166
29-06-1995,5.1875,5.25,250400,5.25,5.1875,4.04438591003418
30-06-1995,5.21875,5.21875,653600,5.4375,5.4375,4.239296913146973
03-07-1995,5.34375,5.40625,317600,5.46875,5.46875,4.26365852355957
05-07-1995,5.28125,5.4375,124000,5.4375,5.28125,4.1174750328063965
06-07-1995,5.21875,5.25,680800,5.28125,5.25,4.093111515045166
07-07-1995,5.21875,5.25,272400,5.25,5.25,4.116636753082275
10-07-1995,5.125,5.28125,638400,5.3125,5.125,4.018620014190674
11-07-1995,5.0,5.125,582000,5.28125,5.15625,4.043124198913574
12-07-1995,5.1875,5.1875,335600,5.28125,5.25,4.1226325035095215
13-07-1995,5.21875,5.375,817600,5.4375,5.21875,4.098091125488281
14-07-1995,5.15625,5.25,286000,5.28125,5.1875,4.073553085327148
17-07-1995,5.15625,5.1875,460400,5.25,5.21875,4.098091125488281
18-07-1995,5.21875,5.21875,77600,5.28125,5.28125,4.147171497344971
19-07-1995,5.1875,5.25,132000,5.28125,5.25,4.1226325035095215
20-07-1995,5.25,5.25,379200,5.375,5.28125,4.147171497344971
21-07-1995,5.21875,5.28125,248000,5.375,5.34375,4.19625186920166
24-07-1995,5.3125,5.3125,176400,5.40625,5.375,4.220790386199951
25-07-1995,5.40625,5.40625,344000,5.46875,5.4375,4.269870281219482
26-07-1995,5.34375,5.40625,244000,5.40625,5.34375,4.19625186920166
27-07-1995,5.21875,5.28125,758000,5.375,5.28125,4.147171497344971
28-07-1995,5.25,5.3125,111600,5.375,5.375,4.220790386199951
31-07-1995,5.34375,5.34375,217200,5.4375,5.40625,4.245330810546875
01-08-1995,5.1875,5.375,532800,5.375,5.21875,4.098091125488281
02-08-1995,5.1875,5.21875,302000,5.25,5.21875,4.098091125488281
03-08-1995,5.125,5.1875,552400,5.34375,5.34375,4.19625186920166
04-08-1995,5.28125,5.34375,558800,5.34375,5.34375,4.19625186920166
07-08-1995,5.34375,5.375,101600,5.40625,5.375,4.220790386199951
08-08-1995,5.34375,5.40625,305200,5.4375,5.34375,4.19625186920166
09-08-1995,5.3125,5.40625,703200,5.40625,5.3125,4.171712875366211
10-08-1995,5.1875,5.3125,166000,5.34375,5.1875,4.073553085327148
11-08-1995,5.15625,5.15625,349600,5.3125,5.3125,4.171712875366211
14-08-1995,5.25,5.34375,134400,5.34375,5.25,4.1226325035095215
15-08-1995,5.25,5.3125,108800,5.34375,5.25,4.1226325035095215
16-08-1995,5.125,5.21875,242000,5.21875,5.21875,4.098091125488281
17-08-1995,5.1875,5.1875,371600,5.3125,5.28125,4.147171497344971
18-08-1995,5.28125,5.28125,542400,5.5,5.40625,4.245330810546875
21-08-1995,5.40625,5.46875,575600,5.5,5.40625,4.245330810546875
22-08-1995,5.4375,5.4375,362400,5.53125,5.53125,4.343487739562988
23-08-1995,5.5625,5.5625,317600,5.71875,5.625,4.417106628417969
24-08-1995,5.46875,5.59375,2007200,5.625,5.5,4.318946361541748
25-08-1995,5.5,5.5,160000,5.53125,5.5,4.318946361541748
28-08-1995,5.46875,5.5,280000,5.5625,5.53125,4.343487739562988
29-08-1995,5.5,5.53125,56400,5.5625,5.53125,4.343487739562988
30-08-1995,5.625,5.625,290400,5.65625,5.65625,4.441646099090576
31-08-1995,5.6875,5.6875,116800,5.84375,5.8125,4.56434440612793
01-09-1995,5.84375,5.84375,431200,5.96875,5.96875,4.687041282653809
05-09-1995,5.90625,5.96875,545200,6.03125,6.03125,4.736119270324707
06-09-1995,5.90625,5.96875,415600,6.0,6.0,4.711581230163574
07-09-1995,5.78125,6.0,284000,6.03125,6.03125,4.736119270324707
08-09-1995,5.9375,6.03125,248000,6.09375,5.9375,4.662501811981201
11-09-1995,5.9375,5.96875,230800,6.03125,6.03125,4.736119270324707
12-09-1995,5.90625,6.0,312400,6.15625,6.15625,4.834278106689453
13-09-1995,6.03125,6.125,547600,6.125,6.0625,4.760659217834473
14-09-1995,5.9375,6.03125,348000,6.09375,6.09375,4.78519868850708
15-09-1995,6.0625,6.0625,221200,6.1875,6.1875,4.858816623687744
18-09-1995,6.125,6.15625,490000,6.34375,6.21875,4.883355617523193
19-09-1995,6.0,6.15625,504800,6.1875,6.15625,4.834278106689453
20-09-1995,6.0,6.125,284800,6.125,6.0,4.711581230163574
21-09-1995,5.9375,6.0625,451200,6.0625,6.03125,4.736119270324707
22-09-1995,5.78125,6.03125,143600,6.03125,5.875,4.613421440124512
25-09-1995,5.75,5.84375,183200,5.84375,5.78125,4.539805889129639
26-09-1995,5.65625,5.78125,232000,5.78125,5.65625,4.441646099090576
27-09-1995,5.625,5.6875,229200,5.75,5.75,4.515265941619873
28-09-1995,5.625,5.8125,263600,5.96875,5.625,4.417106628417969
29-09-1995,5.4375,5.59375,635600,5.59375,5.4375,4.269870281219482
02-10-1995,5.4375,5.46875,548400,5.6875,5.59375,4.3925676345825195
03-10-1995,5.5625,5.5625,304400,5.6875,5.65625,4.441646099090576
04-10-1995,5.5625,5.625,230800,5.65625,5.65625,4.441646099090576
05-10-1995,5.5,5.625,76800,5.625,5.53125,4.343487739562988
06-10-1995,5.5,5.5,259200,5.5625,5.5625,4.368028163909912
09-10-1995,5.5,5.59375,48000,5.59375,5.5,4.318946361541748
10-10-1995,5.375,5.46875,109600,5.46875,5.375,4.220790386199951
11-10-1995,5.34375,5.375,166000,5.40625,5.34375,4.219801425933838
12-10-1995,5.34375,5.375,620000,5.5625,5.5,4.349292755126953
13-10-1995,5.5,5.5,227200,5.59375,5.53125,4.374005317687988
16-10-1995,5.40625,5.53125,188800,5.53125,5.46875,4.324581623077393
17-10-1995,5.40625,5.4375,398400,5.5,5.5,4.349292755126953
18-10-1995,5.25,5.4375,1966400,5.46875,5.25,4.151598930358887
19-10-1995,5.21875,5.21875,1503600,5.3125,5.21875,4.126885890960693
20-10-1995,5.125,5.25,333600,5.25,5.125,4.052751541137695
23-10-1995,5.0,5.15625,608000,5.15625,5.0,3.953902006149292
24-10-1995,4.90625,5.0,1186800,5.0,4.9375,3.9044768810272217
25-10-1995,4.71875,4.9375,658400,4.9375,4.71875,3.731496572494507
26-10-1995,4.6875,4.75,439600,4.8125,4.71875,3.731496572494507
27-10-1995,4.71875,4.71875,352000,4.875,4.875,3.85505747795105
30-10-1995,4.9375,4.9375,646800,5.0,4.96875,3.929192543029785
31-10-1995,4.96875,5.0,314800,5.03125,5.0,3.953902006149292
01-11-1995,5.0,5.0,390800,5.03125,5.0,3.953902006149292
02-11-1995,4.9375,4.96875,42800,5.0,4.9375,3.9044768810272217
03-11-1995,4.875,4.875,165600,4.96875,4.96875,3.929192543029785
06-11-1995,4.90625,4.96875,63600,4.96875,4.90625,3.8797671794891357
07-11-1995,4.9375,4.9375,476400,5.03125,5.03125,3.978611946105957
08-11-1995,4.875,4.96875,907200,5.0,5.0,3.953902006149292
09-11-1995,5.03125,5.09375,1176400,5.15625,5.03125,3.978611946105957
10-11-1995,4.90625,5.03125,550000,5.03125,4.90625,3.8797671794891357
13-11-1995,4.9375,4.96875,446800,5.09375,5.09375,4.028039932250977
14-11-1995,4.9375,5.03125,1045600,5.0625,4.96875,3.929192543029785
15-11-1995,4.96875,4.96875,228000,5.03125,5.0,3.953902006149292
16-11-1995,5.03125,5.03125,1046400,5.4375,5.375,4.250445365905762
17-11-1995,5.375,5.40625,906800,5.40625,5.40625,4.275157928466797
20-11-1995,5.1875,5.40625,585600,5.40625,5.1875,4.102173805236816
21-11-1995,5.1875,5.21875,363200,5.375,5.34375,4.225733280181885
22-11-1995,5.34375,5.375,432800,5.40625,5.40625,4.275157928466797
24-11-1995,5.3125,5.40625,229200,5.40625,5.3125,4.201024532318115
27-11-1995,5.125,5.21875,851200,5.21875,5.1875,4.102173805236816
28-11-1995,5.1875,5.1875,315200,5.28125,5.25,4.151598930358887
29-11-1995,5.21875,5.28125,28800,5.28125,5.21875,4.126885890960693
30-11-1995,5.1875,5.28125,311200,5.28125,5.25,4.151598930358887
01-12-1995,5.25,5.25,308400,5.34375,5.28125,4.1763105392456055
04-12-1995,5.125,5.3125,1056000,5.3125,5.3125,4.201024532318115
05-12-1995,5.3125,5.3125,461200,5.375,5.375,4.250445365905762
06-12-1995,5.40625,5.40625,685200,5.4375,5.4375,4.299871921539307
07-12-1995,5.4375,5.4375,720400,5.5,5.5,4.349292755126953
08-12-1995,5.4375,5.46875,18838800,5.65625,5.65625,4.472851753234863
11-12-1995,5.71875,5.8125,5631200,5.875,5.875,4.6458353996276855
12-12-1995,5.8125,5.875,2874000,5.90625,5.875,4.6458353996276855
13-12-1995,5.84375,5.875,3176800,6.09375,6.0,4.74468469619751
14-12-1995,5.90625,6.03125,2280000,6.09375,5.90625,4.670548915863037
15-12-1995,5.875,6.1875,1721200,6.21875,6.0,4.74468469619751
18-12-1995,5.8125,5.9375,974000,5.96875,5.96875,4.719969749450684
19-12-1995,5.875,5.96875,876000,6.0625,6.0625,4.794107913970947
20-12-1995,6.03125,6.0625,2001200,6.21875,6.03125,4.76939582824707
21-12-1995,6.0,6.03125,1896800,6.125,6.03125,4.76939582824707
22-12-1995,5.9375,6.09375,1115600,6.15625,6.03125,4.76939582824707
26-12-1995,6.03125,6.09375,490800,6.09375,6.03125,4.76939582824707
27-12-1995,5.9375,6.03125,582000,6.03125,5.9375,4.6952595710754395
28-12-1995,5.90625,5.90625,1150800,6.15625,6.15625,4.868241786956787
29-12-1995,5.9375,6.1875,677200,6.1875,6.0,4.74468469619751
02-01-1996,6.03125,6.0625,579600,6.125,6.09375,4.818820953369141
03-01-1996,5.875,6.125,1148000,6.125,5.96875,4.719969749450684
04-01-1996,5.9375,5.96875,1644000,6.0625,5.96875,4.719969749450684
05-01-1996,5.9375,5.9375,680800,6.09375,6.0625,4.794107913970947
08-01-1996,6.0625,6.0625,779200,6.125,6.125,4.843531608581543
09-01-1996,5.9375,6.15625,948400,6.15625,6.0,4.74468469619751
10-01-1996,5.84375,6.0,516400,6.03125,5.96875,4.719969749450684
11-01-1996,5.6875,5.8125,1618400,5.8125,5.78125,4.577451705932617
12-01-1996,5.75,5.75,555200,5.8125,5.8125,4.602196216583252
15-01-1996,5.75,5.875,1159200,5.875,5.75,4.552708625793457
16-01-1996,5.71875,5.75,1683200,5.8125,5.75,4.552708625793457
17-01-1996,5.59375,5.75,2281600,5.78125,5.75,4.552708625793457
18-01-1996,5.71875,5.75,504000,5.78125,5.78125,4.577451705932617
19-01-1996,5.75,5.8125,803200,5.84375,5.75,4.552708625793457
22-01-1996,5.78125,5.78125,545600,5.875,5.875,4.651681900024414
23-01-1996,5.78125,5.84375,426400,5.90625,5.78125,4.577451705932617
24-01-1996,5.78125,5.8125,539600,5.96875,5.875,4.651681900024414
25-01-1996,5.875,5.875,693600,5.96875,5.9375,4.701167583465576
26-01-1996,5.875,5.90625,1880000,5.90625,5.875,4.651681900024414
29-01-1996,5.875,5.90625,1636800,6.0,6.0,4.750653266906738
30-01-1996,5.96875,6.0,970800,6.03125,6.03125,4.775396823883057
31-01-1996,5.96875,6.03125,650000,6.125,6.09375,4.824883937835693
01-02-1996,6.125,6.125,2182400,6.3125,6.21875,4.923851490020752
02-02-1996,6.125,6.15625,1204000,6.25,6.15625,4.8743672370910645
05-02-1996,6.0625,6.09375,923200,6.15625,6.09375,4.824883937835693
06-02-1996,6.03125,6.09375,938400,6.125,6.03125,4.775396823883057
07-02-1996,6.0625,6.09375,838800,6.15625,6.125,4.849626064300537
08-02-1996,6.125,6.125,705600,6.25,6.1875,4.899111270904541
09-02-1996,6.125,6.1875,1770400,6.28125,6.25,4.948599338531494
12-02-1996,6.15625,6.25,4923200,6.65625,6.53125,5.17128324508667
13-02-1996,6.25,6.59375,3442800,6.59375,6.34375,5.022828578948975
14-02-1996,6.375,6.375,1570000,6.625,6.5625,5.196026802062988
15-02-1996,6.53125,6.53125,1637600,6.9375,6.90625,5.468198299407959
16-02-1996,6.65625,7.125,2182000,7.125,6.75,5.344485282897949
20-02-1996,6.5625,6.625,421200,6.71875,6.625,5.245513916015625
21-02-1996,6.53125,6.5625,1553600,6.71875,6.71875,5.319741249084473
22-02-1996,6.59375,6.6875,1300800,6.75,6.6875,5.294996738433838
23-02-1996,6.5625,6.65625,660000,6.75,6.71875,5.319741249084473
26-02-1996,6.5625,6.625,556400,6.65625,6.59375,5.220768928527832
27-02-1996,6.5,6.53125,532800,6.625,6.59375,5.220768928527832
28-02-1996,6.40625,6.59375,2225600,6.71875,6.40625,5.072310924530029
29-02-1996,6.1875,6.4375,956000,6.4375,6.25,4.948599338531494
01-03-1996,6.25,6.25,402800,6.34375,6.25,4.948599338531494
04-03-1996,6.1875,6.25,809200,6.34375,6.3125,4.99808406829834
05-03-1996,6.15625,6.25,574000,6.25,6.25,4.948599338531494
06-03-1996,6.1875,6.21875,830000,6.40625,6.40625,5.072310924530029
07-03-1996,6.3125,6.375,1132000,6.40625,6.375,5.04757022857666
08-03-1996,6.1875,6.1875,278400,6.28125,6.21875,4.923851490020752
11-03-1996,6.09375,6.1875,1366400,6.1875,6.15625,4.8743672370910645
12-03-1996,6.09375,6.125,1108400,6.15625,6.125,4.849626064300537
13-03-1996,6.125,6.125,1038800,6.1875,6.1875,4.899111270904541
14-03-1996,6.25,6.25,2724800,6.40625,6.3125,4.99808406829834
15-03-1996,6.0,6.25,1051600,6.25,6.0625,4.8001389503479
18-03-1996,6.0625,6.09375,4547200,6.375,6.375,5.04757022857666
19-03-1996,6.34375,6.375,473600,6.4375,6.34375,5.022828578948975
20-03-1996,6.1875,6.375,223600,6.375,6.1875,4.899111270904541
21-03-1996,6.125,6.1875,936800,6.28125,6.125,4.849626064300537
22-03-1996,6.09375,6.15625,1019600,6.1875,6.09375,4.824883937835693
25-03-1996,6.0625,6.0625,907200,6.28125,6.28125,4.973341941833496
26-03-1996,6.25,6.28125,216800,6.3125,6.3125,4.99808406829834
27-03-1996,6.40625,6.5,1842000,6.59375,6.53125,5.17128324508667
28-03-1996,6.53125,6.53125,1270000,6.65625,6.65625,5.270257472991943
29-03-1996,6.5625,6.59375,1343600,6.625,6.59375,5.220768928527832
01-04-1996,6.5625,6.59375,752800,6.6875,6.6875,5.294996738433838
02-04-1996,6.65625,6.71875,1116400,6.875,6.84375,5.418713569641113
03-04-1996,6.71875,6.78125,1519600,6.96875,6.9375,5.492944240570068
04-04-1996,6.75,6.9375,796800,6.9375,6.875,5.443459987640381
08-04-1996,6.625,6.84375,1262800,6.84375,6.8125,5.393970966339111
09-04-1996,6.8125,6.8125,923200,6.90625,6.875,5.443459987640381
10-04-1996,6.78125,6.8125,1358000,6.96875,6.9375,5.492944240570068
11-04-1996,6.84375,6.875,932000,6.9375,6.875,5.449350357055664
12-04-1996,6.59375,6.875,1120000,6.875,6.65625,5.275959491729736
15-04-1996,6.5625,6.59375,948000,6.78125,6.75,5.350269794464111
16-04-1996,6.6875,6.78125,846000,6.78125,6.75,5.350269794464111
17-04-1996,6.65625,6.75,1494800,6.75,6.6875,5.300729751586914
18-04-1996,6.5,6.6875,1113200,6.6875,6.53125,5.176882266998291
19-04-1996,6.5,6.5,884400,6.6875,6.65625,5.275959491729736
22-04-1996,6.65625,6.65625,2457600,6.90625,6.8125,5.399809837341309
23-04-1996,6.78125,6.9375,1053200,7.0,6.90625,5.474117279052734
24-04-1996,6.90625,6.90625,1069200,7.15625,7.03125,5.573194980621338
25-04-1996,6.9375,6.96875,536800,7.0,6.9375,5.49888801574707
26-04-1996,6.78125,6.875,486400,6.9375,6.78125,5.375038146972656
29-04-1996,6.71875,6.71875,705200,6.875,6.78125,5.375038146972656
30-04-1996,6.59375,6.8125,779600,6.875,6.625,5.251190662384033
01-05-1996,6.5,6.625,808400,6.75,6.5,5.15211296081543
02-05-1996,6.46875,6.5625,373600,6.59375,6.5625,5.201650619506836
03-05-1996,6.53125,6.625,680000,6.625,6.625,5.251190662384033
06-05-1996,6.5625,6.59375,504400,6.65625,6.5625,5.201650619506836
07-05-1996,6.125,6.625,1395600,6.65625,6.21875,4.929183006286621
08-05-1996,6.1875,6.25,620400,6.34375,6.25,4.953953742980957
09-05-1996,6.25,6.25,332000,6.375,6.375,5.053033351898193
10-05-1996,6.25,6.375,818400,6.40625,6.3125,5.003495216369629
13-05-1996,6.21875,6.25,796000,6.3125,6.25,4.953953742980957
14-05-1996,6.15625,6.25,1208800,6.28125,6.15625,4.879642009735107
15-05-1996,6.09375,6.1875,2372400,6.3125,6.3125,5.003495216369629
16-05-1996,6.25,6.34375,379600,6.34375,6.28125,4.978723526000977
17-05-1996,6.1875,6.25,1017600,6.28125,6.25,4.953953742980957
20-05-1996,6.25,6.25,425600,6.375,6.34375,5.028262615203857
21-05-1996,6.3125,6.3125,2660400,6.46875,6.4375,5.102572917938232
22-05-1996,6.4375,6.4375,552000,6.5,6.5,5.15211296081543
23-05-1996,6.53125,6.5625,1154800,6.75,6.5625,5.201650619506836
24-05-1996,6.4375,6.5,1701200,6.53125,6.5,5.15211296081543
28-05-1996,6.359375,6.53125,554000,6.53125,6.4375,5.102572917938232
29-05-1996,6.3125,6.40625,613600,6.40625,6.375,5.053033351898193
30-05-1996,6.25,6.375,604000,6.375,6.3125,5.003495216369629
31-05-1996,6.25,6.34375,493200,6.375,6.3125,5.003495216369629
03-06-1996,6.28125,6.3125,211200,6.3125,6.3125,5.003495216369629
04-06-1996,6.375,6.40625,654800,6.46875,6.375,5.053033351898193
05-06-1996,6.40625,6.4375,679600,6.46875,6.4375,5.102572917938232
06-06-1996,6.25,6.4375,278800,6.4375,6.28125,4.978723526000977
07-06-1996,6.15625,6.21875,702800,6.34375,6.34375,5.028262615203857
10-06-1996,6.3125,6.34375,241200,6.34375,6.3125,5.003495216369629
11-06-1996,6.28125,6.3125,761600,6.375,6.3125,5.003495216369629
12-06-1996,6.25,6.3125,1385200,6.3125,6.28125,4.978723526000977
13-06-1996,6.09375,6.28125,985600,6.28125,6.1875,4.90441370010376
14-06-1996,6.15625,6.1875,1093200,6.21875,6.15625,4.879642009735107
17-06-1996,6.0625,6.09375,586400,6.125,6.0625,4.80533504486084
18-06-1996,5.96875,6.0,1450000,6.125,5.96875,4.731024742126465
19-06-1996,6.03125,6.03125,1416800,6.15625,6.0625,4.80533504486084
20-06-1996,6.0625,6.09375,1258400,6.125,6.09375,4.830103874206543
21-06-1996,6.0,6.09375,650800,6.09375,6.0,4.755794525146484
24-06-1996,5.96875,6.03125,948000,6.0625,6.0,4.755794525146484
25-06-1996,5.96875,6.03125,2754000,6.25,6.15625,4.879642009735107
26-06-1996,6.21875,6.21875,5256400,6.625,6.625,5.251190662384033
27-06-1996,6.53125,6.59375,4884000,6.75,6.75,5.350269794464111
28-06-1996,6.78125,6.8125,5409200,6.96875,6.96875,5.523656368255615
01-07-1996,6.90625,6.96875,3778800,7.28125,7.28125,5.7713541984558105
02-07-1996,7.125,7.15625,2342000,7.25,7.21875,5.721813201904297
03-07-1996,7.125,7.125,1392000,7.21875,7.21875,5.721813201904297
05-07-1996,7.125,7.21875,753600,7.3125,7.28125,5.7713541984558105
08-07-1996,7.1875,7.25,924800,7.3125,7.25,5.746585369110107
09-07-1996,7.25,7.25,2440800,7.5625,7.5,5.944743633270264
10-07-1996,7.46875,7.5,3225600,7.65625,7.5625,5.994282245635986
11-07-1996,7.125,7.46875,3954400,7.59375,7.1875,5.702702522277832
12-07-1996,7.125,7.15625,1191200,7.21875,7.15625,5.677905559539795
15-07-1996,7.09375,7.125,1718400,7.34375,7.125,5.653112888336182
16-07-1996,6.5625,7.0625,1854400,7.09375,6.65625,5.281198024749756
17-07-1996,6.6875,6.6875,2270000,6.96875,6.6875,5.305990695953369
18-07-1996,6.65625,6.75,990400,6.8125,6.71875,5.330786228179932
19-07-1996,6.65625,6.6875,1322800,6.71875,6.6875,5.305990695953369
22-07-1996,6.5625,6.6875,1101600,6.6875,6.59375,5.23160982131958
23-07-1996,6.53125,6.625,2303200,6.8125,6.8125,5.405169486999512
24-07-1996,6.625,6.75,327600,6.75,6.625,5.256403923034668
25-07-1996,6.375,6.625,762800,6.78125,6.375,5.058051109313965
26-07-1996,6.40625,6.40625,462800,6.5625,6.53125,5.1820197105407715
29-07-1996,6.4375,6.5,676800,6.53125,6.5,5.157227993011475
30-07-1996,6.25,6.46875,1988800,6.53125,6.3125,5.00846004486084
31-07-1996,6.125,6.3125,1733600,6.3125,6.25,4.958870887756348
01-08-1996,6.25,6.25,1422800,6.375,6.3125,5.00846004486084
02-08-1996,6.3125,6.3125,1042800,6.46875,6.46875,5.132431507110596
05-08-1996,6.34375,6.46875,503200,6.59375,6.59375,5.23160982131958
06-08-1996,6.5,6.59375,495200,6.65625,6.65625,5.281198024749756
07-08-1996,6.75,6.75,1542800,6.84375,6.84375,5.429965496063232
08-08-1996,6.75,6.84375,767600,6.875,6.84375,5.429965496063232
09-08-1996,6.71875,6.875,634400,6.875,6.71875,5.330786228179932
12-08-1996,6.625,6.75,167600,6.75,6.625,5.256403923034668
13-08-1996,6.625,6.65625,389600,6.6875,6.625,5.256403923034668
14-08-1996,6.625,6.625,333200,6.65625,6.65625,5.281198024749756
15-08-1996,6.625,6.625,331600,6.75,6.75,5.355581760406494
16-08-1996,6.625,6.6875,329600,6.71875,6.71875,5.330786228179932
19-08-1996,6.625,6.65625,339200,6.78125,6.78125,5.38037633895874
20-08-1996,6.6875,6.8125,928800,6.8125,6.75,5.355581760406494
21-08-1996,6.59375,6.71875,837600,6.71875,6.65625,5.281198024749756
22-08-1996,6.59375,6.65625,433200,6.6875,6.65625,5.281198024749756
23-08-1996,6.5625,6.59375,228800,6.65625,6.625,5.256403923034668
26-08-1996,6.5625,6.625,488000,6.65625,6.65625,5.281198024749756
27-08-1996,6.5,6.625,669600,6.625,6.5,5.157227993011475
28-08-1996,6.46875,6.5,392800,6.5,6.46875,5.132431507110596
29-08-1996,6.4375,6.46875,499200,6.5,6.46875,5.132431507110596
30-08-1996,6.375,6.4375,160800,6.46875,6.46875,5.132431507110596
03-09-1996,6.5,6.5,1298800,6.59375,6.5625,5.206814289093018
04-09-1996,6.40625,6.53125,356400,6.53125,6.46875,5.132431507110596
05-09-1996,6.375,6.4375,382800,6.5,6.4375,5.107636451721191
06-09-1996,6.3125,6.4375,2431600,6.59375,6.46875,5.132431507110596
09-09-1996,6.40625,6.46875,501200,6.53125,6.5,5.157227993011475
10-09-1996,6.46875,6.5,488400,6.53125,6.46875,5.132431507110596
11-09-1996,6.46875,6.46875,1305600,6.65625,6.5625,5.206814289093018
12-09-1996,6.28125,6.53125,1240800,6.53125,6.3125,5.00846004486084
13-09-1996,6.125,6.3125,1250400,6.3125,6.125,4.859694480895996
16-09-1996,6.03125,6.125,1839600,6.125,6.0625,4.810105323791504
17-09-1996,5.71875,5.875,3505600,5.9375,5.875,4.661339282989502
18-09-1996,5.875,5.90625,2286800,6.09375,6.0,4.760516166687012
19-09-1996,5.96875,5.96875,2160800,6.09375,6.03125,4.785308837890625
20-09-1996,6.03125,6.03125,601200,6.09375,6.03125,4.785308837890625
23-09-1996,6.0,6.0625,1021600,6.0625,6.03125,4.785308837890625
24-09-1996,5.84375,6.0,1552000,6.0625,5.90625,4.68613338470459
25-09-1996,5.78125,5.90625,1691200,6.0,6.0,4.760516166687012
26-09-1996,6.03125,6.03125,856400,6.15625,6.125,4.859694480895996
27-09-1996,6.0,6.0625,1036000,6.09375,6.03125,4.785308837890625
30-09-1996,6.0,6.0,1134400,6.21875,6.21875,4.934075832366943
01-10-1996,6.25,6.25,956400,6.3125,6.3125,5.00846004486084
02-10-1996,6.28125,6.3125,774800,6.40625,6.375,5.058051109313965
03-10-1996,6.28125,6.375,691600,6.375,6.28125,4.983667373657227
04-10-1996,6.28125,6.34375,592000,6.40625,6.28125,4.983667373657227
07-10-1996,6.25,6.28125,1552000,6.4375,6.40625,5.0828423500061035
08-10-1996,6.34375,6.40625,1220000,6.46875,6.375,5.058051109313965
09-10-1996,6.25,6.375,772800,6.375,6.3125,5.00846004486084
10-10-1996,5.9375,6.21875,2254800,6.21875,6.0,4.766178131103516
11-10-1996,5.9375,6.0,1258800,6.0625,5.9375,4.716531276702881
14-10-1996,5.8125,5.9375,2306000,5.96875,5.84375,4.64206075668335
15-10-1996,5.84375,5.875,1424800,6.0,6.0,4.766178131103516
16-10-1996,5.96875,6.0,1880000,6.09375,6.09375,4.8406500816345215
17-10-1996,6.125,6.15625,1636400,6.25,6.25,4.964770317077637
18-10-1996,6.21875,6.25,1060800,6.40625,6.375,5.064067840576172
21-10-1996,6.25,6.34375,722000,6.375,6.25,4.964770317077637
22-10-1996,6.15625,6.25,1494400,6.3125,6.1875,4.915121555328369
23-10-1996,5.96875,6.15625,2842800,6.15625,6.0,4.766178131103516
24-10-1996,6.0,6.03125,1593200,6.09375,6.0625,4.815826892852783
25-10-1996,6.09375,6.09375,1020000,6.21875,6.21875,4.939944267272949
28-10-1996,6.09375,6.15625,995600,6.1875,6.09375,4.8406500816345215
29-10-1996,6.03125,6.09375,1533600,6.15625,6.15625,4.890296936035156
30-10-1996,6.15625,6.15625,3300400,6.375,6.375,5.064067840576172
31-10-1996,6.375,6.375,1713200,6.53125,6.4375,5.113711833953857
01-11-1996,6.25,6.4375,1226800,6.46875,6.28125,4.989595890045166
04-11-1996,6.1875,6.25,1135200,6.28125,6.1875,4.915121555328369
05-11-1996,6.1875,6.25,730800,6.25,6.21875,4.939944267272949
06-11-1996,6.125,6.21875,395600,6.21875,6.125,4.865475177764893
07-11-1996,6.0,6.0,1647200,6.0625,6.0,4.766178131103516
08-11-1996,6.0,6.0625,1212400,6.15625,6.15625,4.890296936035156
11-11-1996,6.15625,6.1875,1075600,6.28125,6.25,4.964770317077637
12-11-1996,6.25,6.3125,1186400,6.375,6.25,4.964770317077637
13-11-1996,6.25,6.28125,1387200,6.28125,6.28125,4.989595890045166
14-11-1996,6.28125,6.28125,2227200,6.3125,6.3125,5.014419078826904
15-11-1996,6.21875,6.28125,1321600,6.34375,6.25,4.964770317077637
18-11-1996,6.1875,6.25,682000,6.25,6.25,4.964770317077637
19-11-1996,6.21875,6.25,2281600,6.40625,6.40625,5.088888645172119
20-11-1996,6.5625,6.75,3805200,6.78125,6.78125,5.386775016784668
21-11-1996,6.59375,6.78125,1956000,6.78125,6.625,5.262655735015869
